Label: EMG Ch1 Sampling frequency: 1.000000e+003 Number of points: 10000 X start: 0.000000e+000 Unit: V Domain Unit: s
Start Trigger Method: Manual
Stop Trigger Method: Manual
Use Camera: NO
Video File Path: Set1[Rep1].avi
System Gain: 1.000000e+003
A/D card Gain: 1.000000e+000
Bit Resolution: 1.525879e-004
Bias: 0.000000e+000
High pass cutoff frequency: 2.000000e+001
Low pass cutoff frequency: 4.500000e+002
X [s],EMG Ch1 [V]
0.000000e+000,4.257202e-005
1.000000e-003,4.058838e-005
2.000000e-003,3.997803e-005
3.000000e-003,4.699707e-005
4.000000e-003,4.699707e-005
5.000000e-003,4.364014e-005
6.000000e-003,4.226685e-005
7.000000e-003,4.058838e-005
8.000000e-003,4.272461e-005
9.000000e-003,4.180908e-005
1.000000e-002,4.272461e-005
1.100000e-002,3.967285e-005
1.200000e-002,4.089355e-005
1.300000e-002,4.455566e-005
1.400000e-002,4.364014e-005
1.500000e-002,4.013062e-005
1.600000e-002,4.440308e-005
1.700000e-002,4.684448e-005
1.800000e-002,4.486084e-005
1.900000e-002,4.241943e-005
2.000000e-002,4.058838e-005
2.100000e-002,4.241943e-005
2.200000e-002,4.470825e-005
2.300000e-002,4.516602e-005
2.400000e-002,4.684448e-005
2.500000e-002,4.653931e-005
2.600000e-002,4.425049e-005
2.700000e-002,4.135132e-005
2.800000e-002,3.875732e-005
2.900000e-002,4.211426e-005
3.000000e-002,4.394531e-005
3.100000e-002,4.531860e-005
3.200000e-002,4.211426e-005
3.300000e-002,4.272461e-005
3.400000e-002,4.302979e-005
3.500000e-002,4.608154e-005
3.600000e-002,4.806519e-005
3.700000e-002,4.745483e-005
3.800000e-002,4.547119e-005
3.900000e-002,4.714966e-005
4.000000e-002,5.004883e-005
4.100000e-002,4.623413e-005
4.200000e-002,4.776001e-005
4.300000e-002,4.623413e-005
4.400000e-002,4.257202e-005
4.500000e-002,4.486084e-005
4.600000e-002,4.470825e-005
4.700000e-002,4.104614e-005
4.800000e-002,4.211426e-005
4.900000e-002,4.272461e-005
5.000000e-002,4.196167e-005
5.100000e-002,4.394531e-005
5.200000e-002,4.165649e-005
5.300000e-002,4.226685e-005
5.400000e-002,4.241943e-005
5.500000e-002,4.333496e-005
5.600000e-002,4.425049e-005
5.700000e-002,4.379272e-005
5.800000e-002,4.394531e-005
5.900000e-002,4.486084e-005
6.000000e-002,4.379272e-005
6.100000e-002,4.730225e-005
6.200000e-002,4.592896e-005
6.300000e-002,4.867554e-005
6.400000e-002,4.333496e-005
6.500000e-002,4.379272e-005
6.600000e-002,4.577637e-005
6.700000e-002,4.226685e-005
6.800000e-002,3.921509e-005
6.900000e-002,3.738403e-005
7.000000e-002,3.936768e-005
7.100000e-002,3.509521e-005
7.200000e-002,3.967285e-005
7.300000e-002,4.287720e-005
7.400000e-002,4.333496e-005
7.500000e-002,4.165649e-005
7.600000e-002,4.455566e-005
7.700000e-002,4.257202e-005
7.800000e-002,4.943848e-005
7.900000e-002,4.562378e-005
8.000000e-002,4.516602e-005
8.100000e-002,4.623413e-005
8.200000e-002,4.577637e-005
8.300000e-002,4.867554e-005
8.400000e-002,4.882813e-005
8.500000e-002,4.348755e-005
8.600000e-002,4.470825e-005
8.700000e-002,4.653931e-005
8.800000e-002,4.318237e-005
8.900000e-002,3.921509e-005
9.000000e-002,3.936768e-005
9.100000e-002,4.211426e-005
9.200000e-002,4.058838e-005
9.300000e-002,4.379272e-005
9.400000e-002,4.180908e-005
9.500000e-002,4.699707e-005
9.600000e-002,4.714966e-005
9.700000e-002,4.745483e-005
9.800000e-002,4.714966e-005
9.900000e-002,4.425049e-005
1.000000e-001,4.394531e-005
1.010000e-001,4.653931e-005
1.020000e-001,4.577637e-005
1.030000e-001,4.730225e-005
1.040000e-001,4.379272e-005
1.050000e-001,4.302979e-005
1.060000e-001,4.333496e-005
1.070000e-001,4.196167e-005
1.080000e-001,3.982544e-005
1.090000e-001,4.318237e-005
1.100000e-001,4.165649e-005
1.110000e-001,3.814697e-005
1.120000e-001,4.043579e-005
1.130000e-001,4.486084e-005
1.140000e-001,4.348755e-005
1.150000e-001,4.684448e-005
1.160000e-001,4.745483e-005
1.170000e-001,4.730225e-005
1.180000e-001,4.684448e-005
1.190000e-001,4.577637e-005
1.200000e-001,4.684448e-005
1.210000e-001,4.470825e-005
1.220000e-001,4.440308e-005
1.230000e-001,4.516602e-005
1.240000e-001,4.180908e-005
1.250000e-001,4.333496e-005
1.260000e-001,4.287720e-005
1.270000e-001,4.226685e-005
1.280000e-001,4.119873e-005
1.290000e-001,4.348755e-005
1.300000e-001,4.180908e-005
1.310000e-001,3.829956e-005
1.320000e-001,4.028320e-005
1.330000e-001,4.089355e-005
1.340000e-001,4.425049e-005
1.350000e-001,4.226685e-005
1.360000e-001,4.302979e-005
1.370000e-001,4.257202e-005
1.380000e-001,4.684448e-005
1.390000e-001,4.760742e-005
1.400000e-001,4.730225e-005
1.410000e-001,4.714966e-005
1.420000e-001,4.608154e-005
1.430000e-001,4.562378e-005
1.440000e-001,4.501343e-005
1.450000e-001,4.180908e-005
1.460000e-001,3.875732e-005
1.470000e-001,4.333496e-005
1.480000e-001,4.196167e-005
1.490000e-001,4.211426e-005
1.500000e-001,4.135132e-005
1.510000e-001,4.211426e-005
1.520000e-001,4.257202e-005
1.530000e-001,4.272461e-005
1.540000e-001,4.379272e-005
1.550000e-001,4.562378e-005
1.560000e-001,4.333496e-005
1.570000e-001,4.623413e-005
1.580000e-001,4.989624e-005
1.590000e-001,4.806519e-005
1.600000e-001,4.943848e-005
1.610000e-001,4.806519e-005
1.620000e-001,4.684448e-005
1.630000e-001,4.440308e-005
1.640000e-001,4.608154e-005
1.650000e-001,4.165649e-005
1.660000e-001,4.196167e-005
1.670000e-001,4.287720e-005
1.680000e-001,4.455566e-005
1.690000e-001,4.241943e-005
1.700000e-001,4.043579e-005
1.710000e-001,3.982544e-005
1.720000e-001,3.921509e-005
1.730000e-001,4.196167e-005
1.740000e-001,3.997803e-005
1.750000e-001,3.906250e-005
1.760000e-001,4.241943e-005
1.770000e-001,3.997803e-005
1.780000e-001,4.547119e-005
1.790000e-001,4.501343e-005
1.800000e-001,4.318237e-005
1.810000e-001,4.379272e-005
1.820000e-001,4.714966e-005
1.830000e-001,4.806519e-005
1.840000e-001,4.699707e-005
1.850000e-001,4.241943e-005
1.860000e-001,4.608154e-005
1.870000e-001,4.486084e-005
1.880000e-001,4.348755e-005
1.890000e-001,4.302979e-005
1.900000e-001,4.272461e-005
1.910000e-001,4.165649e-005
1.920000e-001,4.348755e-005
1.930000e-001,4.165649e-005
1.940000e-001,4.272461e-005
1.950000e-001,4.760742e-005
1.960000e-001,4.791260e-005
1.970000e-001,4.760742e-005
1.980000e-001,4.791260e-005
1.990000e-001,4.653931e-005
2.000000e-001,4.455566e-005
2.010000e-001,4.440308e-005
2.020000e-001,4.516602e-005
2.030000e-001,4.623413e-005
2.040000e-001,4.257202e-005
2.050000e-001,4.135132e-005
2.060000e-001,4.043579e-005
2.070000e-001,4.089355e-005
2.080000e-001,4.318237e-005
2.090000e-001,4.211426e-005
2.100000e-001,4.364014e-005
2.110000e-001,4.516602e-005
2.120000e-001,4.165649e-005
2.130000e-001,4.104614e-005
2.140000e-001,4.196167e-005
2.150000e-001,4.364014e-005
2.160000e-001,4.592896e-005
2.170000e-001,4.577637e-005
2.180000e-001,4.623413e-005
2.190000e-001,4.608154e-005
2.200000e-001,4.440308e-005
2.210000e-001,4.379272e-005
2.220000e-001,4.287720e-005
2.230000e-001,4.440308e-005
2.240000e-001,4.470825e-005
2.250000e-001,4.241943e-005
2.260000e-001,4.379272e-005
2.270000e-001,4.394531e-005
2.280000e-001,4.577637e-005
2.290000e-001,4.623413e-005
2.300000e-001,4.455566e-005
2.310000e-001,4.028320e-005
2.320000e-001,3.753662e-005
2.330000e-001,4.226685e-005
2.340000e-001,4.440308e-005
2.350000e-001,4.425049e-005
2.360000e-001,4.333496e-005
2.370000e-001,4.882813e-005
2.380000e-001,4.547119e-005
2.390000e-001,4.180908e-005
2.400000e-001,3.967285e-005
2.410000e-001,4.241943e-005
2.420000e-001,4.211426e-005
2.430000e-001,4.394531e-005
2.440000e-001,4.028320e-005
2.450000e-001,4.440308e-005
2.460000e-001,4.730225e-005
2.470000e-001,4.455566e-005
2.480000e-001,4.455566e-005
2.490000e-001,4.257202e-005
2.500000e-001,4.241943e-005
2.510000e-001,4.119873e-005
2.520000e-001,4.394531e-005
2.530000e-001,4.943848e-005
2.540000e-001,4.501343e-005
2.550000e-001,4.241943e-005
2.560000e-001,4.516602e-005
2.570000e-001,4.714966e-005
2.580000e-001,4.653931e-005
2.590000e-001,4.684448e-005
2.600000e-001,4.440308e-005
2.610000e-001,4.455566e-005
2.620000e-001,4.592896e-005
2.630000e-001,4.425049e-005
2.640000e-001,4.516602e-005
2.650000e-001,4.486084e-005
2.660000e-001,4.165649e-005
2.670000e-001,4.241943e-005
2.680000e-001,4.028320e-005
2.690000e-001,3.936768e-005
2.700000e-001,4.165649e-005
2.710000e-001,4.241943e-005
2.720000e-001,4.547119e-005
2.730000e-001,4.470825e-005
2.740000e-001,4.898071e-005
2.750000e-001,4.516602e-005
2.760000e-001,4.379272e-005
2.770000e-001,4.623413e-005
2.780000e-001,4.608154e-005
2.790000e-001,4.562378e-005
2.800000e-001,4.425049e-005
2.810000e-001,4.592896e-005
2.820000e-001,4.440308e-005
2.830000e-001,4.119873e-005
2.840000e-001,4.058838e-005
2.850000e-001,4.119873e-005
2.860000e-001,4.516602e-005
2.870000e-001,4.531860e-005
2.880000e-001,4.135132e-005
2.890000e-001,4.501343e-005
2.900000e-001,4.287720e-005
2.910000e-001,4.104614e-005
2.920000e-001,3.387451e-005
2.930000e-001,3.662109e-005
2.940000e-001,3.692627e-005
2.950000e-001,4.165649e-005
2.960000e-001,4.776001e-005
2.970000e-001,4.959106e-005
2.980000e-001,4.882813e-005
2.990000e-001,4.989624e-005
3.000000e-001,5.233765e-005
3.010000e-001,5.325317e-005
3.020000e-001,4.989624e-005
3.030000e-001,4.730225e-005
3.040000e-001,4.333496e-005
3.050000e-001,4.104614e-005
3.060000e-001,3.860474e-005
3.070000e-001,3.829956e-005
3.080000e-001,4.119873e-005
3.090000e-001,4.165649e-005
3.100000e-001,4.531860e-005
3.110000e-001,4.165649e-005
3.120000e-001,4.226685e-005
3.130000e-001,4.287720e-005
3.140000e-001,4.196167e-005
3.150000e-001,4.440308e-005
3.160000e-001,4.379272e-005
3.170000e-001,4.425049e-005
3.180000e-001,4.699707e-005
3.190000e-001,4.562378e-005
3.200000e-001,4.577637e-005
3.210000e-001,4.592896e-005
3.220000e-001,4.867554e-005
3.230000e-001,4.638672e-005
3.240000e-001,4.653931e-005
3.250000e-001,4.455566e-005
3.260000e-001,4.455566e-005
3.270000e-001,3.875732e-005
3.280000e-001,3.799438e-005
3.290000e-001,4.089355e-005
3.300000e-001,4.089355e-005
3.310000e-001,4.364014e-005
3.320000e-001,4.272461e-005
3.330000e-001,4.379272e-005
3.340000e-001,4.714966e-005
3.350000e-001,4.318237e-005
3.360000e-001,4.379272e-005
3.370000e-001,4.241943e-005
3.380000e-001,4.486084e-005
3.390000e-001,4.287720e-005
3.400000e-001,4.379272e-005
3.410000e-001,4.699707e-005
3.420000e-001,4.257202e-005
3.430000e-001,4.455566e-005
3.440000e-001,4.226685e-005
3.450000e-001,4.486084e-005
3.460000e-001,4.562378e-005
3.470000e-001,4.257202e-005
3.480000e-001,4.394531e-005
3.490000e-001,4.013062e-005
3.500000e-001,4.058838e-005
3.510000e-001,3.646851e-005
3.520000e-001,3.479004e-005
3.530000e-001,3.784180e-005
3.540000e-001,4.043579e-005
3.550000e-001,4.531860e-005
3.560000e-001,4.989624e-005
3.570000e-001,5.096436e-005
3.580000e-001,5.081177e-005
3.590000e-001,5.340576e-005
3.600000e-001,5.355835e-005
3.610000e-001,5.142212e-005
3.620000e-001,4.730225e-005
3.630000e-001,4.425049e-005
3.640000e-001,4.882813e-005
3.650000e-001,4.684448e-005
3.660000e-001,4.302979e-005
3.670000e-001,4.272461e-005
3.680000e-001,3.906250e-005
3.690000e-001,3.524780e-005
3.700000e-001,3.540039e-005
3.710000e-001,3.372192e-005
3.720000e-001,4.043579e-005
3.730000e-001,4.379272e-005
3.740000e-001,4.516602e-005
3.750000e-001,4.623413e-005
3.760000e-001,4.791260e-005
3.770000e-001,4.806519e-005
3.780000e-001,5.187988e-005
3.790000e-001,5.172729e-005
3.800000e-001,4.501343e-005
3.810000e-001,4.333496e-005
3.820000e-001,4.364014e-005
3.830000e-001,3.845215e-005
3.840000e-001,3.555298e-005
3.850000e-001,3.555298e-005
3.860000e-001,3.799438e-005
3.870000e-001,3.921509e-005
3.880000e-001,3.860474e-005
3.890000e-001,4.013062e-005
3.900000e-001,3.662109e-005
3.910000e-001,4.089355e-005
3.920000e-001,4.608154e-005
3.930000e-001,4.882813e-005
3.940000e-001,4.714966e-005
3.950000e-001,4.760742e-005
3.960000e-001,5.142212e-005
3.970000e-001,5.050659e-005
3.980000e-001,4.760742e-005
3.990000e-001,4.776001e-005
4.000000e-001,4.867554e-005
4.010000e-001,5.065918e-005
4.020000e-001,5.004883e-005
4.030000e-001,4.974365e-005
4.040000e-001,4.974365e-005
4.050000e-001,4.547119e-005
4.060000e-001,3.997803e-005
4.070000e-001,3.875732e-005
4.080000e-001,4.013062e-005
4.090000e-001,3.967285e-005
4.100000e-001,4.028320e-005
4.110000e-001,3.692627e-005
4.120000e-001,3.616333e-005
4.130000e-001,3.952026e-005
4.140000e-001,3.860474e-005
4.150000e-001,4.165649e-005
4.160000e-001,4.226685e-005
4.170000e-001,4.241943e-005
4.180000e-001,4.653931e-005
4.190000e-001,4.562378e-005
4.200000e-001,4.684448e-005
4.210000e-001,4.623413e-005
4.220000e-001,4.501343e-005
4.230000e-001,4.791260e-005
4.240000e-001,4.730225e-005
4.250000e-001,4.226685e-005
4.260000e-001,4.455566e-005
4.270000e-001,4.180908e-005
4.280000e-001,4.119873e-005
4.290000e-001,4.440308e-005
4.300000e-001,4.440308e-005
4.310000e-001,4.562378e-005
4.320000e-001,4.348755e-005
4.330000e-001,4.531860e-005
4.340000e-001,4.791260e-005
4.350000e-001,4.638672e-005
4.360000e-001,4.440308e-005
4.370000e-001,4.501343e-005
4.380000e-001,4.592896e-005
4.390000e-001,4.547119e-005
4.400000e-001,4.730225e-005
4.410000e-001,4.714966e-005
4.420000e-001,4.486084e-005
4.430000e-001,4.043579e-005
4.440000e-001,4.104614e-005
4.450000e-001,3.829956e-005
4.460000e-001,3.875732e-005
4.470000e-001,3.967285e-005
4.480000e-001,3.753662e-005
4.490000e-001,4.165649e-005
4.500000e-001,4.348755e-005
4.510000e-001,4.104614e-005
4.520000e-001,4.440308e-005
4.530000e-001,4.714966e-005
4.540000e-001,4.730225e-005
4.550000e-001,4.913330e-005
4.560000e-001,4.470825e-005
4.570000e-001,4.348755e-005
4.580000e-001,4.608154e-005
4.590000e-001,4.623413e-005
4.600000e-001,4.257202e-005
4.610000e-001,4.379272e-005
4.620000e-001,4.547119e-005
4.630000e-001,4.287720e-005
4.640000e-001,4.440308e-005
4.650000e-001,4.272461e-005
4.660000e-001,4.257202e-005
4.670000e-001,4.257202e-005
4.680000e-001,4.287720e-005
4.690000e-001,4.165649e-005
4.700000e-001,4.425049e-005
4.710000e-001,3.845215e-005
4.720000e-001,4.089355e-005
4.730000e-001,4.333496e-005
4.740000e-001,4.226685e-005
4.750000e-001,4.165649e-005
4.760000e-001,4.592896e-005
4.770000e-001,4.867554e-005
4.780000e-001,4.577637e-005
4.790000e-001,4.638672e-005
4.800000e-001,4.791260e-005
4.810000e-001,4.898071e-005
4.820000e-001,4.943848e-005
4.830000e-001,4.638672e-005
4.840000e-001,4.516602e-005
4.850000e-001,4.653931e-005
4.860000e-001,4.623413e-005
4.870000e-001,4.486084e-005
4.880000e-001,4.135132e-005
4.890000e-001,4.165649e-005
4.900000e-001,4.196167e-005
4.910000e-001,4.089355e-005
4.920000e-001,4.074097e-005
4.930000e-001,4.013062e-005
4.940000e-001,3.799438e-005
4.950000e-001,3.860474e-005
4.960000e-001,3.601074e-005
4.970000e-001,4.043579e-005
4.980000e-001,4.135132e-005
4.990000e-001,4.165649e-005
5.000000e-001,4.425049e-005
5.010000e-001,4.623413e-005
5.020000e-001,4.577637e-005
5.030000e-001,4.714966e-005
5.040000e-001,4.562378e-005
5.050000e-001,4.516602e-005
5.060000e-001,4.089355e-005
5.070000e-001,4.470825e-005
5.080000e-001,4.608154e-005
5.090000e-001,4.638672e-005
5.100000e-001,5.004883e-005
5.110000e-001,4.562378e-005
5.120000e-001,4.730225e-005
5.130000e-001,5.371094e-005
5.140000e-001,4.974365e-005
5.150000e-001,4.608154e-005
5.160000e-001,4.302979e-005
5.170000e-001,4.028320e-005
5.180000e-001,4.043579e-005
5.190000e-001,4.058838e-005
5.200000e-001,3.860474e-005
5.210000e-001,4.028320e-005
5.220000e-001,3.860474e-005
5.230000e-001,3.921509e-005
5.240000e-001,4.394531e-005
5.250000e-001,4.623413e-005
5.260000e-001,4.943848e-005
5.270000e-001,4.791260e-005
5.280000e-001,4.364014e-005
5.290000e-001,4.531860e-005
5.300000e-001,4.745483e-005
5.310000e-001,4.684448e-005
5.320000e-001,4.318237e-005
5.330000e-001,4.226685e-005
5.340000e-001,4.058838e-005
5.350000e-001,3.982544e-005
5.360000e-001,3.814697e-005
5.370000e-001,4.257202e-005
5.380000e-001,4.440308e-005
5.390000e-001,4.547119e-005
5.400000e-001,4.470825e-005
5.410000e-001,4.730225e-005
5.420000e-001,4.760742e-005
5.430000e-001,4.180908e-005
5.440000e-001,4.135132e-005
5.450000e-001,4.074097e-005
5.460000e-001,4.516602e-005
5.470000e-001,4.638672e-005
5.480000e-001,4.608154e-005
5.490000e-001,4.425049e-005
5.500000e-001,4.348755e-005
5.510000e-001,4.287720e-005
5.520000e-001,4.547119e-005
5.530000e-001,4.516602e-005
5.540000e-001,4.348755e-005
5.550000e-001,4.226685e-005
5.560000e-001,4.257202e-005
5.570000e-001,4.226685e-005
5.580000e-001,4.043579e-005
5.590000e-001,3.601074e-005
5.600000e-001,3.585815e-005
5.610000e-001,3.387451e-005
5.620000e-001,3.768921e-005
5.630000e-001,4.119873e-005
5.640000e-001,4.470825e-005
5.650000e-001,5.020142e-005
5.660000e-001,5.004883e-005
5.670000e-001,4.760742e-005
5.680000e-001,5.157471e-005
5.690000e-001,4.959106e-005
5.700000e-001,4.882813e-005
5.710000e-001,4.760742e-005
5.720000e-001,4.821777e-005
5.730000e-001,4.653931e-005
5.740000e-001,4.653931e-005
5.750000e-001,4.730225e-005
5.760000e-001,4.745483e-005
5.770000e-001,4.364014e-005
5.780000e-001,4.684448e-005
5.790000e-001,4.730225e-005
5.800000e-001,4.562378e-005
5.810000e-001,4.684448e-005
5.820000e-001,4.653931e-005
5.830000e-001,4.425049e-005
5.840000e-001,3.753662e-005
5.850000e-001,3.219604e-005
5.860000e-001,2.609253e-005
5.870000e-001,3.158569e-005
5.880000e-001,3.555298e-005
5.890000e-001,3.417969e-005
5.900000e-001,4.165649e-005
5.910000e-001,4.043579e-005
5.920000e-001,4.501343e-005
5.930000e-001,4.714966e-005
5.940000e-001,4.623413e-005
5.950000e-001,4.806519e-005
5.960000e-001,4.714966e-005
5.970000e-001,4.943848e-005
5.980000e-001,4.714966e-005
5.990000e-001,4.852295e-005
6.000000e-001,5.157471e-005
6.010000e-001,4.821777e-005
6.020000e-001,4.608154e-005
6.030000e-001,4.455566e-005
6.040000e-001,3.906250e-005
6.050000e-001,3.860474e-005
6.060000e-001,3.829956e-005
6.070000e-001,3.799438e-005
6.080000e-001,4.165649e-005
6.090000e-001,4.104614e-005
6.100000e-001,4.531860e-005
6.110000e-001,4.547119e-005
6.120000e-001,4.608154e-005
6.130000e-001,4.455566e-005
6.140000e-001,4.562378e-005
6.150000e-001,4.684448e-005
6.160000e-001,4.806519e-005
6.170000e-001,4.653931e-005
6.180000e-001,4.714966e-005
6.190000e-001,4.684448e-005
6.200000e-001,5.096436e-005
6.210000e-001,4.913330e-005
6.220000e-001,4.898071e-005
6.230000e-001,4.608154e-005
6.240000e-001,4.318237e-005
6.250000e-001,4.074097e-005
6.260000e-001,4.028320e-005
6.270000e-001,4.089355e-005
6.280000e-001,3.768921e-005
6.290000e-001,3.662109e-005
6.300000e-001,3.814697e-005
6.310000e-001,3.784180e-005
6.320000e-001,4.028320e-005
6.330000e-001,4.104614e-005
6.340000e-001,4.272461e-005
6.350000e-001,4.455566e-005
6.360000e-001,3.936768e-005
6.370000e-001,4.119873e-005
6.380000e-001,4.272461e-005
6.390000e-001,4.348755e-005
6.400000e-001,4.547119e-005
6.410000e-001,4.531860e-005
6.420000e-001,4.699707e-005
6.430000e-001,4.348755e-005
6.440000e-001,4.241943e-005
6.450000e-001,4.501343e-005
6.460000e-001,5.050659e-005
6.470000e-001,5.493164e-005
6.480000e-001,5.630493e-005
6.490000e-001,5.401611e-005
6.500000e-001,5.050659e-005
6.510000e-001,4.425049e-005
6.520000e-001,3.601074e-005
6.530000e-001,3.372192e-005
6.540000e-001,3.616333e-005
6.550000e-001,4.486084e-005
6.560000e-001,4.501343e-005
6.570000e-001,3.814697e-005
6.580000e-001,3.936768e-005
6.590000e-001,4.074097e-005
6.600000e-001,3.479004e-005
6.610000e-001,3.250122e-005
6.620000e-001,3.967285e-005
6.630000e-001,4.776001e-005
6.640000e-001,4.867554e-005
6.650000e-001,4.684448e-005
6.660000e-001,4.364014e-005
6.670000e-001,3.936768e-005
6.680000e-001,4.165649e-005
6.690000e-001,4.608154e-005
6.700000e-001,4.455566e-005
6.710000e-001,4.852295e-005
6.720000e-001,6.362915e-005
6.730000e-001,6.301880e-005
6.740000e-001,5.508423e-005
6.750000e-001,4.531860e-005
6.760000e-001,3.173828e-005
6.770000e-001,2.426147e-005
6.780000e-001,2.899170e-005
6.790000e-001,2.990723e-005
6.800000e-001,3.402710e-005
6.810000e-001,4.272461e-005
6.820000e-001,4.837036e-005
6.830000e-001,5.310059e-005
6.840000e-001,5.142212e-005
6.850000e-001,5.432129e-005
6.860000e-001,5.264282e-005
6.870000e-001,5.035400e-005
6.880000e-001,4.547119e-005
6.890000e-001,4.638672e-005
6.900000e-001,5.187988e-005
6.910000e-001,5.172729e-005
6.920000e-001,4.516602e-005
6.930000e-001,4.135132e-005
6.940000e-001,4.074097e-005
6.950000e-001,4.104614e-005
6.960000e-001,3.509521e-005
6.970000e-001,3.219604e-005
6.980000e-001,3.646851e-005
6.990000e-001,3.723145e-005
7.000000e-001,4.089355e-005
7.010000e-001,4.516602e-005
7.020000e-001,4.394531e-005
7.030000e-001,4.440308e-005
7.040000e-001,4.379272e-005
7.050000e-001,4.501343e-005
7.060000e-001,4.211426e-005
7.070000e-001,3.768921e-005
7.080000e-001,3.326416e-005
7.090000e-001,3.967285e-005
7.100000e-001,4.714966e-005
7.110000e-001,5.126953e-005
7.120000e-001,4.516602e-005
7.130000e-001,4.959106e-005
7.140000e-001,4.989624e-005
7.150000e-001,4.425049e-005
7.160000e-001,4.302979e-005
7.170000e-001,3.952026e-005
7.180000e-001,4.119873e-005
7.190000e-001,4.852295e-005
7.200000e-001,4.974365e-005
7.210000e-001,4.898071e-005
7.220000e-001,4.501343e-005
7.230000e-001,4.577637e-005
7.240000e-001,4.806519e-005
7.250000e-001,4.470825e-005
7.260000e-001,5.065918e-005
7.270000e-001,4.913330e-005
7.280000e-001,4.837036e-005
7.290000e-001,4.348755e-005
7.300000e-001,3.417969e-005
7.310000e-001,3.601074e-005
7.320000e-001,3.433228e-005
7.330000e-001,3.555298e-005
7.340000e-001,3.555298e-005
7.350000e-001,4.333496e-005
7.360000e-001,4.913330e-005
7.370000e-001,4.592896e-005
7.380000e-001,4.714966e-005
7.390000e-001,4.425049e-005
7.400000e-001,4.013062e-005
7.410000e-001,4.348755e-005
7.420000e-001,4.333496e-005
7.430000e-001,4.348755e-005
7.440000e-001,4.486084e-005
7.450000e-001,4.074097e-005
7.460000e-001,4.486084e-005
7.470000e-001,4.699707e-005
7.480000e-001,4.653931e-005
7.490000e-001,4.196167e-005
7.500000e-001,4.226685e-005
7.510000e-001,4.226685e-005
7.520000e-001,4.287720e-005
7.530000e-001,4.791260e-005
7.540000e-001,5.752563e-005
7.550000e-001,5.264282e-005
7.560000e-001,4.959106e-005
7.570000e-001,4.333496e-005
7.580000e-001,4.364014e-005
7.590000e-001,4.837036e-005
7.600000e-001,4.760742e-005
7.610000e-001,3.570557e-005
7.620000e-001,3.173828e-005
7.630000e-001,2.517700e-005
7.640000e-001,2.700806e-005
7.650000e-001,3.311157e-005
7.660000e-001,3.677368e-005
7.670000e-001,4.043579e-005
7.680000e-001,4.608154e-005
7.690000e-001,5.157471e-005
7.700000e-001,5.142212e-005
7.710000e-001,5.538940e-005
7.720000e-001,6.469727e-005
7.730000e-001,7.339478e-005
7.740000e-001,1.022339e-005
7.750000e-001,-4.714966e-005
7.760000e-001,-5.905151e-005
7.770000e-001,-3.463745e-005
7.780000e-001,-9.613037e-006
7.790000e-001,2.990723e-005
7.800000e-001,4.913330e-005
7.810000e-001,7.263184e-005
7.820000e-001,1.094055e-004
7.830000e-001,1.742554e-004
7.840000e-001,2.252197e-004
7.850000e-001,2.491760e-004
7.860000e-001,2.357483e-004
7.870000e-001,1.928711e-004
7.880000e-001,1.460266e-004
7.890000e-001,9.429932e-005
7.900000e-001,4.287720e-005
7.910000e-001,-2.441406e-006
7.920000e-001,-4.257202e-005
7.930000e-001,-7.720947e-005
7.940000e-001,-1.034546e-004
7.950000e-001,-1.089478e-004
7.960000e-001,-9.765625e-005
7.970000e-001,-7.873535e-005
7.980000e-001,-6.210327e-005
7.990000e-001,-4.974365e-005
8.000000e-001,-2.944946e-005
8.010000e-001,-4.425049e-006
8.020000e-001,2.899170e-006
8.030000e-001,8.697510e-006
8.040000e-001,2.868652e-005
8.050000e-001,4.440308e-005
8.060000e-001,5.371094e-005
8.070000e-001,6.408691e-005
8.080000e-001,7.461548e-005
8.090000e-001,8.255005e-005
8.100000e-001,8.956909e-005
8.110000e-001,9.140015e-005
8.120000e-001,9.384155e-005
8.130000e-001,9.552002e-005
8.140000e-001,9.155273e-005
8.150000e-001,9.048462e-005
8.160000e-001,8.499146e-005
8.170000e-001,7.995605e-005
8.180000e-001,7.339478e-005
8.190000e-001,7.110596e-005
8.200000e-001,7.247925e-005
8.210000e-001,6.591797e-005
8.220000e-001,6.301880e-005
8.230000e-001,6.256104e-005
8.240000e-001,5.783081e-005
8.250000e-001,5.218506e-005
8.260000e-001,4.974365e-005
8.270000e-001,4.791260e-005
8.280000e-001,4.257202e-005
8.290000e-001,4.608154e-005
8.300000e-001,4.608154e-005
8.310000e-001,3.509521e-005
8.320000e-001,2.014160e-005
8.330000e-001,6.469727e-005
8.340000e-001,1.710510e-004
8.350000e-001,-6.454468e-005
8.360000e-001,-2.333069e-004
8.370000e-001,-2.229309e-004
8.380000e-001,-1.049805e-004
8.390000e-001,3.646851e-005
8.400000e-001,2.471924e-004
8.410000e-001,2.018738e-004
8.420000e-001,-1.199341e-004
8.430000e-001,-2.079773e-004
8.440000e-001,-5.599976e-005
8.450000e-001,1.289368e-004
8.460000e-001,2.856445e-004
8.470000e-001,3.631592e-004
8.480000e-001,3.842163e-004
8.490000e-001,3.721619e-004
8.500000e-001,2.795410e-004
8.510000e-001,2.140808e-004
8.520000e-001,1.235962e-004
8.530000e-001,4.501343e-005
8.540000e-001,-9.765625e-006
8.550000e-001,-7.614136e-005
8.560000e-001,-1.383972e-004
8.570000e-001,-1.586914e-004
8.580000e-001,-1.664734e-004
8.590000e-001,-1.666260e-004
8.600000e-001,-1.510620e-004
8.610000e-001,-1.344299e-004
8.620000e-001,-1.107788e-004
8.630000e-001,-8.514404e-005
8.640000e-001,-6.393433e-005
8.650000e-001,-4.776001e-005
8.660000e-001,-1.571655e-005
8.670000e-001,2.502441e-005
8.680000e-001,4.074097e-005
8.690000e-001,6.423950e-005
8.700000e-001,8.438110e-005
8.710000e-001,1.031494e-004
8.720000e-001,1.344299e-004
8.730000e-001,1.374817e-004
8.740000e-001,1.229858e-004
8.750000e-001,1.182556e-004
8.760000e-001,1.144409e-004
8.770000e-001,9.002686e-005
8.780000e-001,9.445190e-005
8.790000e-001,1.078796e-004
8.800000e-001,1.229858e-004
8.810000e-001,1.068115e-004
8.820000e-001,8.392334e-005
8.830000e-001,8.010864e-005
8.840000e-001,1.855469e-004
8.850000e-001,2.314758e-004
8.860000e-001,-7.049561e-005
8.870000e-001,-1.548767e-004
8.880000e-001,-8.392334e-005
8.890000e-001,2.532959e-005
8.900000e-001,1.300049e-004
8.910000e-001,1.268005e-004
8.920000e-001,9.597778e-005
8.930000e-001,1.307678e-004
8.940000e-001,1.394653e-004
8.950000e-001,-1.127625e-004
8.960000e-001,-2.659607e-004
8.970000e-001,-1.715088e-004
8.980000e-001,4.730225e-005
8.990000e-001,1.617432e-004
9.000000e-001,2.294922e-004
9.010000e-001,2.873230e-004
9.020000e-001,3.738403e-004
9.030000e-001,3.231812e-004
9.040000e-001,2.404785e-004
9.050000e-001,-8.239746e-005
9.060000e-001,-3.187561e-004
9.070000e-001,-2.947998e-004
9.080000e-001,-3.175354e-004
9.090000e-001,-4.640198e-004
9.100000e-001,-3.846741e-004
9.110000e-001,4.592896e-005
9.120000e-001,1.840210e-004
9.130000e-001,1.272583e-004
9.140000e-001,1.701355e-004
9.150000e-001,1.889038e-004
9.160000e-001,8.117676e-005
9.170000e-001,5.264282e-005
9.180000e-001,2.682495e-004
9.190000e-001,5.950928e-005
9.200000e-001,-6.774902e-005
9.210000e-001,1.335144e-004
9.220000e-001,4.254150e-004
9.230000e-001,4.208374e-004
9.240000e-001,2.005005e-004
9.250000e-001,1.895142e-004
9.260000e-001,2.380371e-004
9.270000e-001,2.770996e-004
9.280000e-001,1.574707e-004
9.290000e-001,-2.421570e-004
9.300000e-001,-2.828979e-004
9.310000e-001,-1.358032e-004
9.320000e-001,2.624512e-005
9.330000e-001,1.701355e-004
9.340000e-001,1.976013e-004
9.350000e-001,5.523682e-005
9.360000e-001,-1.695251e-004
9.370000e-001,-2.835083e-004
9.380000e-001,-2.124023e-004
9.390000e-001,-2.838135e-004
9.400000e-001,-3.851318e-004
9.410000e-001,-1.693726e-004
9.420000e-001,8.392334e-005
9.430000e-001,6.103516e-007
9.440000e-001,-1.396179e-004
9.450000e-001,5.432129e-005
9.460000e-001,2.114868e-004
9.470000e-001,1.138306e-004
9.480000e-001,1.147461e-004
9.490000e-001,2.050781e-004
9.500000e-001,1.779175e-004
9.510000e-001,2.061462e-004
9.520000e-001,-3.921509e-005
9.530000e-001,-4.165649e-004
9.540000e-001,-3.077698e-004
9.550000e-001,5.691528e-005
9.560000e-001,3.839111e-004
9.570000e-001,4.263306e-004
9.580000e-001,4.782104e-004
9.590000e-001,7.250977e-004
9.600000e-001,6.394958e-004
9.610000e-001,4.077148e-004
9.620000e-001,2.706909e-004
9.630000e-001,7.537842e-005
9.640000e-001,-1.974487e-004
9.650000e-001,-5.158997e-004
9.660000e-001,-5.688477e-004
9.670000e-001,-4.141235e-004
9.680000e-001,-1.828003e-004
9.690000e-001,-1.133728e-004
9.700000e-001,6.866455e-006
9.710000e-001,2.856445e-004
9.720000e-001,5.905151e-004
9.730000e-001,2.304077e-004
9.740000e-001,-1.078796e-004
9.750000e-001,-1.773071e-004
9.760000e-001,-1.412964e-004
9.770000e-001,1.235962e-005
9.780000e-001,3.189087e-005
9.790000e-001,1.400757e-004
9.800000e-001,4.415894e-004
9.810000e-001,1.483154e-004
9.820000e-001,-4.006958e-004
9.830000e-001,-3.015137e-004
9.840000e-001,-3.967285e-006
9.850000e-001,8.041382e-005
9.860000e-001,-6.530762e-005
9.870000e-001,-1.658630e-004
9.880000e-001,-9.201050e-005
9.890000e-001,-1.968384e-005
9.900000e-001,2.558899e-004
9.910000e-001,4.710388e-004
9.920000e-001,4.577637e-004
9.930000e-001,3.903198e-004
9.940000e-001,2.496338e-004
9.950000e-001,4.165649e-005
9.960000e-001,-8.041382e-005
9.970000e-001,-1.060486e-004
9.980000e-001,-1.390076e-004
9.990000e-001,-8.651733e-005
1.000000e+000,6.408691e-006
1.001000e+000,4.898071e-005
1.002000e+000,-2.120972e-005
1.003000e+000,-3.721619e-004
1.004000e+000,-4.373169e-004
1.005000e+000,-6.027222e-005
1.006000e+000,-4.470825e-005
1.007000e+000,-7.003784e-005
1.008000e+000,1.393127e-004
1.009000e+000,1.696777e-004
1.010000e+000,2.702332e-004
1.011000e+000,2.920532e-004
1.012000e+000,2.613831e-004
1.013000e+000,2.934265e-004
1.014000e+000,1.733398e-004
1.015000e+000,9.323120e-005
1.016000e+000,3.796387e-004
1.017000e+000,4.653931e-004
1.018000e+000,4.039001e-004
1.019000e+000,1.679993e-004
1.020000e+000,4.699707e-005
1.021000e+000,-1.667786e-004
1.022000e+000,-2.656555e-004
1.023000e+000,-3.117371e-004
1.024000e+000,-4.164124e-004
1.025000e+000,-3.967285e-004
1.026000e+000,-4.156494e-004
1.027000e+000,-2.362061e-004
1.028000e+000,-1.449585e-005
1.029000e+000,2.366638e-004
1.030000e+000,3.765869e-004
1.031000e+000,3.761292e-004
1.032000e+000,4.118347e-004
1.033000e+000,1.203918e-004
1.034000e+000,-2.944946e-005
1.035000e+000,4.104614e-005
1.036000e+000,6.698608e-005
1.037000e+000,9.963989e-005
1.038000e+000,-1.525879e-007
1.039000e+000,-2.807617e-005
1.040000e+000,-2.990723e-005
1.041000e+000,1.983643e-005
1.042000e+000,1.657104e-004
1.043000e+000,-4.119873e-006
1.044000e+000,-3.688049e-004
1.045000e+000,-3.573608e-004
1.046000e+000,3.784180e-005
1.047000e+000,4.423523e-004
1.048000e+000,5.892944e-004
1.049000e+000,1.638794e-004
1.050000e+000,-2.297974e-004
1.051000e+000,-2.729797e-004
1.052000e+000,1.388550e-004
1.053000e+000,4.376221e-004
1.054000e+000,1.702881e-004
1.055000e+000,2.670288e-005
1.056000e+000,-1.754761e-005
1.057000e+000,-1.480103e-005
1.058000e+000,9.460449e-006
1.059000e+000,-1.023865e-004
1.060000e+000,-2.047729e-004
1.061000e+000,-1.776123e-004
1.062000e+000,7.720947e-005
1.063000e+000,4.661560e-004
1.064000e+000,4.614258e-004
1.065000e+000,4.240417e-004
1.066000e+000,3.889465e-004
1.067000e+000,2.262878e-004
1.068000e+000,-8.636475e-005
1.069000e+000,-3.662109e-004
1.070000e+000,-6.399536e-004
1.071000e+000,-7.536316e-004
1.072000e+000,-6.330872e-004
1.073000e+000,-2.853394e-004
1.074000e+000,1.896667e-004
1.075000e+000,5.651855e-004
1.076000e+000,7.962036e-004
1.077000e+000,8.895874e-004
1.078000e+000,5.122375e-004
1.079000e+000,-1.513672e-004
1.080000e+000,-6.373596e-004
1.081000e+000,-7.330322e-004
1.082000e+000,-5.094910e-004
1.083000e+000,4.577637e-007
1.084000e+000,6.719971e-004
1.085000e+000,8.877563e-004
1.086000e+000,7.200623e-004
1.087000e+000,2.909851e-004
1.088000e+000,-1.942444e-004
1.089000e+000,-6.030273e-004
1.090000e+000,-5.493164e-004
1.091000e+000,-4.489136e-004
1.092000e+000,-3.158569e-005
1.093000e+000,3.947449e-004
1.094000e+000,5.563354e-004
1.095000e+000,4.399109e-004
1.096000e+000,3.930664e-004
1.097000e+000,1.869202e-004
1.098000e+000,9.078979e-005
1.099000e+000,-2.424622e-004
1.100000e+000,-5.928040e-004
1.101000e+000,-6.013489e-004
1.102000e+000,-2.693176e-004
1.103000e+000,9.780884e-005
1.104000e+000,2.050781e-004
1.105000e+000,3.564453e-004
1.106000e+000,4.743958e-004
1.107000e+000,4.289246e-004
1.108000e+000,6.152344e-004
1.109000e+000,6.477356e-004
1.110000e+000,1.968384e-004
1.111000e+000,-2.856445e-004
1.112000e+000,-6.335449e-004
1.113000e+000,-6.106567e-004
1.114000e+000,-3.312683e-004
1.115000e+000,-2.239990e-004
1.116000e+000,-7.949829e-005
1.117000e+000,8.529663e-005
1.118000e+000,2.580261e-004
1.119000e+000,3.334045e-004
1.120000e+000,1.283264e-004
1.121000e+000,-6.225586e-005
1.122000e+000,-1.602173e-004
1.123000e+000,-2.665710e-004
1.124000e+000,-3.527832e-004
1.125000e+000,-2.606201e-004
1.126000e+000,-1.376343e-004
1.127000e+000,1.875305e-004
1.128000e+000,5.696106e-004
1.129000e+000,9.455872e-004
1.130000e+000,8.760071e-004
1.131000e+000,2.000427e-004
1.132000e+000,-1.535034e-004
1.133000e+000,-2.639771e-005
1.134000e+000,1.901245e-004
1.135000e+000,3.147888e-004
1.136000e+000,7.705688e-005
1.137000e+000,-9.323120e-005
1.138000e+000,-1.419067e-004
1.139000e+000,-2.272034e-004
1.140000e+000,-4.702759e-004
1.141000e+000,-5.461121e-004
1.142000e+000,-4.010010e-004
1.143000e+000,-1.968384e-004
1.144000e+000,9.536743e-005
1.145000e+000,3.862000e-004
1.146000e+000,5.451965e-004
1.147000e+000,5.867004e-004
1.148000e+000,3.266907e-004
1.149000e+000,1.823425e-004
1.150000e+000,1.295471e-004
1.151000e+000,1.292419e-004
1.152000e+000,2.517700e-005
1.153000e+000,-1.644897e-004
1.154000e+000,-4.005432e-004
1.155000e+000,-4.386902e-004
1.156000e+000,-4.421997e-004
1.157000e+000,-5.661011e-005
1.158000e+000,4.144287e-004
1.159000e+000,8.172607e-004
1.160000e+000,8.468628e-004
1.161000e+000,1.861572e-004
1.162000e+000,-2.619934e-004
1.163000e+000,-3.974915e-004
1.164000e+000,-3.445435e-004
1.165000e+000,-2.188110e-004
1.166000e+000,-3.799438e-005
1.167000e+000,7.019043e-006
1.168000e+000,-1.354980e-004
1.169000e+000,-1.988220e-004
1.170000e+000,-1.438904e-004
1.171000e+000,3.402710e-005
1.172000e+000,3.189087e-004
1.173000e+000,3.567505e-004
1.174000e+000,4.028320e-005
1.175000e+000,-3.851318e-004
1.176000e+000,-7.003784e-005
1.177000e+000,2.479553e-004
1.178000e+000,5.926514e-004
1.179000e+000,9.962463e-004
1.180000e+000,5.715942e-004
1.181000e+000,2.734375e-004
1.182000e+000,7.110596e-005
1.183000e+000,-1.741028e-004
1.184000e+000,-2.478027e-004
1.185000e+000,-4.821777e-004
1.186000e+000,-5.465698e-004
1.187000e+000,-2.844238e-004
1.188000e+000,-6.057739e-005
1.189000e+000,1.927185e-004
1.190000e+000,2.191162e-004
1.191000e+000,-2.105713e-005
1.192000e+000,-7.278442e-005
1.193000e+000,1.625061e-004
1.194000e+000,6.031799e-004
1.195000e+000,5.377197e-004
1.196000e+000,-2.700806e-005
1.197000e+000,-3.135681e-004
1.198000e+000,-2.903748e-004
1.199000e+000,-1.165771e-004
1.200000e+000,1.562500e-004
1.201000e+000,1.795959e-004
1.202000e+000,5.676270e-005
1.203000e+000,6.271362e-005
1.204000e+000,-9.094238e-005
1.205000e+000,-2.072144e-004
1.206000e+000,-3.211975e-004
1.207000e+000,-3.555298e-004
1.208000e+000,-2.093506e-004
1.209000e+000,6.896973e-005
1.210000e+000,4.180908e-004
1.211000e+000,5.438232e-004
1.212000e+000,4.357910e-004
1.213000e+000,1.943970e-004
1.214000e+000,-4.135132e-005
1.215000e+000,-9.048462e-005
1.216000e+000,-3.805542e-004
1.217000e+000,-4.840088e-004
1.218000e+000,-5.126953e-005
1.219000e+000,4.811096e-004
1.220000e+000,8.509827e-004
1.221000e+000,1.021729e-003
1.222000e+000,7.252502e-004
1.223000e+000,2.375793e-004
1.224000e+000,-2.178955e-004
1.225000e+000,-4.013062e-004
1.226000e+000,-2.610779e-004
1.227000e+000,-1.020813e-004
1.228000e+000,-3.205872e-004
1.229000e+000,-5.557251e-004
1.230000e+000,-9.118652e-004
1.231000e+000,-5.915833e-004
1.232000e+000,-7.476807e-005
1.233000e+000,5.873108e-004
1.234000e+000,9.048462e-004
1.235000e+000,8.177185e-004
1.236000e+000,4.769897e-004
1.237000e+000,1.536560e-004
1.238000e+000,-9.521484e-005
1.239000e+000,-2.578735e-004
1.240000e+000,-4.058838e-004
1.241000e+000,-4.380798e-004
1.242000e+000,-1.013184e-004
1.243000e+000,3.060913e-004
1.244000e+000,2.906799e-004
1.245000e+000,2.426147e-005
1.246000e+000,-1.359558e-004
1.247000e+000,-2.178955e-004
1.248000e+000,-2.949524e-004
1.249000e+000,-2.775574e-004
1.250000e+000,1.533508e-004
1.251000e+000,5.439758e-004
1.252000e+000,7.283020e-004
1.253000e+000,6.100464e-004
1.254000e+000,3.462219e-004
1.255000e+000,-9.155273e-006
1.256000e+000,-1.321411e-004
1.257000e+000,-1.792908e-004
1.258000e+000,-2.516174e-004
1.259000e+000,-1.359558e-004
1.260000e+000,-5.844116e-005
1.261000e+000,-1.037598e-005
1.262000e+000,-9.414673e-005
1.263000e+000,-1.148987e-004
1.264000e+000,7.415771e-005
1.265000e+000,5.099487e-004
1.266000e+000,4.351807e-004
1.267000e+000,1.806641e-004
1.268000e+000,-1.325989e-004
1.269000e+000,-3.776550e-004
1.270000e+000,-2.586365e-004
1.271000e+000,-3.590393e-004
1.272000e+000,-9.521484e-005
1.273000e+000,3.646851e-004
1.274000e+000,7.566833e-004
1.275000e+000,3.504944e-004
1.276000e+000,1.011658e-004
1.277000e+000,8.514404e-005
1.278000e+000,2.716064e-004
1.279000e+000,1.472473e-004
1.280000e+000,-2.711487e-004
1.281000e+000,-2.639771e-004
1.282000e+000,-1.718140e-004
1.283000e+000,1.525879e-006
1.284000e+000,2.656555e-004
1.285000e+000,2.395630e-004
1.286000e+000,-2.645874e-004
1.287000e+000,-5.781555e-004
1.288000e+000,-3.486633e-004
1.289000e+000,2.441406e-005
1.290000e+000,3.750610e-004
1.291000e+000,2.978516e-004
1.292000e+000,1.541138e-004
1.293000e+000,9.017944e-005
1.294000e+000,2.456665e-005
1.295000e+000,-1.220703e-006
1.296000e+000,1.220703e-006
1.297000e+000,-2.197266e-005
1.298000e+000,-7.553101e-005
1.299000e+000,1.373291e-006
1.300000e+000,-4.272461e-006
1.301000e+000,1.287842e-004
1.302000e+000,2.270508e-004
1.303000e+000,2.008057e-004
1.304000e+000,1.203918e-004
1.305000e+000,1.525879e-004
1.306000e+000,1.681519e-004
1.307000e+000,1.292419e-004
1.308000e+000,6.805420e-005
1.309000e+000,2.349854e-005
1.310000e+000,1.831055e-005
1.311000e+000,-1.091003e-004
1.312000e+000,-2.740479e-004
1.313000e+000,-2.687073e-004
1.314000e+000,-3.715515e-004
1.315000e+000,-4.553223e-004
1.316000e+000,-1.831055e-005
1.317000e+000,9.310913e-004
1.318000e+000,1.445923e-003
1.319000e+000,9.158325e-004
1.320000e+000,4.837036e-004
1.321000e+000,1.547241e-004
1.322000e+000,-5.706787e-005
1.323000e+000,-2.287292e-004
1.324000e+000,-4.457092e-004
1.325000e+000,-6.381226e-004
1.326000e+000,-9.185791e-004
1.327000e+000,-1.006317e-003
1.328000e+000,-2.619934e-004
1.329000e+000,4.447937e-004
1.330000e+000,7.661438e-004
1.331000e+000,6.237793e-004
1.332000e+000,3.407288e-004
1.333000e+000,3.704834e-004
1.334000e+000,-2.319336e-005
1.335000e+000,-5.628967e-004
1.336000e+000,-6.552124e-004
1.337000e+000,-1.504517e-004
1.338000e+000,7.324219e-005
1.339000e+000,-1.330566e-004
1.340000e+000,-2.169800e-004
1.341000e+000,7.949829e-005
1.342000e+000,2.319336e-004
1.343000e+000,4.983521e-004
1.344000e+000,8.325195e-004
1.345000e+000,8.425903e-004
1.346000e+000,3.097534e-004
1.347000e+000,-1.858521e-004
1.348000e+000,-6.541443e-004
1.349000e+000,-7.099915e-004
1.350000e+000,-1.902771e-004
1.351000e+000,3.547668e-004
1.352000e+000,6.282043e-004
1.353000e+000,4.116821e-004
1.354000e+000,1.353455e-004
1.355000e+000,-4.959106e-005
1.356000e+000,6.103516e-007
1.357000e+000,-9.613037e-005
1.358000e+000,-1.960754e-004
1.359000e+000,-1.168823e-004
1.360000e+000,-2.096558e-004
1.361000e+000,-4.025269e-004
1.362000e+000,-2.159119e-004
1.363000e+000,5.706787e-005
1.364000e+000,1.940918e-004
1.365000e+000,2.502441e-004
1.366000e+000,4.142761e-004
1.367000e+000,3.892517e-004
1.368000e+000,1.431274e-004
1.369000e+000,-3.109741e-004
1.370000e+000,-2.384949e-004
1.371000e+000,3.367615e-004
1.372000e+000,5.441284e-004
1.373000e+000,4.124451e-004
1.374000e+000,3.710938e-004
1.375000e+000,2.156067e-004
1.376000e+000,-2.966309e-004
1.377000e+000,-5.555725e-004
1.378000e+000,-4.223633e-004
1.379000e+000,-2.215576e-004
1.380000e+000,1.513672e-004
1.381000e+000,4.319763e-004
1.382000e+000,2.639771e-004
1.383000e+000,6.561279e-006
1.384000e+000,-4.852295e-005
1.385000e+000,1.393127e-004
1.386000e+000,2.619934e-004
1.387000e+000,1.113892e-004
1.388000e+000,-1.759338e-004
1.389000e+000,-3.068542e-004
1.390000e+000,-4.708862e-004
1.391000e+000,-5.491638e-004
1.392000e+000,-1.799011e-004
1.393000e+000,3.707886e-005
1.394000e+000,2.746582e-004
1.395000e+000,3.724670e-004
1.396000e+000,5.529785e-004
1.397000e+000,5.647278e-004
1.398000e+000,1.844788e-004
1.399000e+000,-2.032471e-004
1.400000e+000,-8.193970e-005
1.401000e+000,-1.071167e-004
1.402000e+000,-3.515625e-004
1.403000e+000,-1.022339e-004
1.404000e+000,2.749634e-004
1.405000e+000,5.281067e-004
1.406000e+000,2.511597e-004
1.407000e+000,3.265381e-004
1.408000e+000,1.931763e-004
1.409000e+000,5.493164e-006
1.410000e+000,1.455688e-004
1.411000e+000,3.363037e-004
1.412000e+000,5.178833e-004
1.413000e+000,1.155090e-004
1.414000e+000,-3.767395e-004
1.415000e+000,-3.475952e-004
1.416000e+000,-3.144836e-004
1.417000e+000,-4.344177e-004
1.418000e+000,-4.112244e-004
1.419000e+000,-5.009460e-004
1.420000e+000,-1.507568e-004
1.421000e+000,4.483032e-004
1.422000e+000,4.304504e-004
1.423000e+000,2.593994e-004
1.424000e+000,2.267456e-004
1.425000e+000,2.467346e-004
1.426000e+000,2.949524e-004
1.427000e+000,-5.615234e-005
1.428000e+000,-4.454041e-004
1.429000e+000,-6.965637e-004
1.430000e+000,-4.089355e-004
1.431000e+000,1.756287e-004
1.432000e+000,4.115295e-004
1.433000e+000,7.600403e-004
1.434000e+000,7.960510e-004
1.435000e+000,2.508545e-004
1.436000e+000,-3.131104e-004
1.437000e+000,-3.007507e-004
1.438000e+000,-1.306152e-004
1.439000e+000,2.746582e-005
1.440000e+000,2.336121e-004
1.441000e+000,4.119873e-004
1.442000e+000,3.556824e-004
1.443000e+000,1.130676e-004
1.444000e+000,-1.983643e-006
1.445000e+000,-1.373291e-005
1.446000e+000,-1.934814e-004
1.447000e+000,-3.237915e-004
1.448000e+000,-2.563477e-004
1.449000e+000,-2.090454e-004
1.450000e+000,-2.203369e-004
1.451000e+000,-9.963989e-005
1.452000e+000,1.414490e-004
1.453000e+000,4.083252e-004
1.454000e+000,5.696106e-004
1.455000e+000,3.817749e-004
1.456000e+000,1.293945e-004
1.457000e+000,-4.394531e-005
1.458000e+000,-1.995850e-004
1.459000e+000,-4.806519e-004
1.460000e+000,-3.913879e-004
1.461000e+000,7.080078e-005
1.462000e+000,1.937866e-004
1.463000e+000,2.763367e-004
1.464000e+000,4.348755e-004
1.465000e+000,4.200745e-004
1.466000e+000,1.449585e-005
1.467000e+000,-2.503967e-004
1.468000e+000,-9.185791e-005
1.469000e+000,2.186584e-004
1.470000e+000,1.420593e-004
1.471000e+000,-1.585388e-004
1.472000e+000,-2.281189e-004
1.473000e+000,1.672363e-004
1.474000e+000,4.183960e-004
1.475000e+000,2.937317e-004
1.476000e+000,-1.057434e-004
1.477000e+000,-2.357483e-004
1.478000e+000,-1.234436e-004
1.479000e+000,-1.541138e-005
1.480000e+000,1.844788e-004
1.481000e+000,1.895142e-004
1.482000e+000,-1.091003e-004
1.483000e+000,-3.953552e-004
1.484000e+000,-2.256775e-004
1.485000e+000,3.814697e-004
1.486000e+000,8.190918e-004
1.487000e+000,6.645203e-004
1.488000e+000,1.161194e-004
1.489000e+000,-2.734375e-004
1.490000e+000,-5.987549e-004
1.491000e+000,-4.826355e-004
1.492000e+000,-2.383423e-004
1.493000e+000,-1.316833e-004
1.494000e+000,-5.844116e-005
1.495000e+000,1.397705e-004
1.496000e+000,3.019714e-004
1.497000e+000,2.366638e-004
1.498000e+000,7.046509e-004
1.499000e+000,4.669189e-004
1.500000e+000,1.272583e-004
1.501000e+000,-7.003784e-005
1.502000e+000,-8.361816e-005
1.503000e+000,-3.497314e-004
1.504000e+000,-3.216553e-004
1.505000e+000,-7.034302e-005
1.506000e+000,3.524780e-004
1.507000e+000,5.613708e-004
1.508000e+000,2.558899e-004
1.509000e+000,-1.144409e-004
1.510000e+000,-3.631592e-004
1.511000e+000,-5.633545e-004
1.512000e+000,-3.512573e-004
1.513000e+000,6.256104e-005
1.514000e+000,2.995300e-004
1.515000e+000,3.205872e-004
1.516000e+000,3.514099e-004
1.517000e+000,1.408386e-004
1.518000e+000,4.516602e-005
1.519000e+000,2.137756e-004
1.520000e+000,9.765625e-005
1.521000e+000,1.023865e-004
1.522000e+000,1.889038e-004
1.523000e+000,3.173828e-005
1.524000e+000,-3.253174e-004
1.525000e+000,-4.338074e-004
1.526000e+000,-2.130127e-004
1.527000e+000,9.460449e-006
1.528000e+000,2.969360e-004
1.529000e+000,4.754639e-004
1.530000e+000,4.507446e-004
1.531000e+000,2.270508e-004
1.532000e+000,-3.280640e-005
1.533000e+000,-1.495361e-004
1.534000e+000,-2.314758e-004
1.535000e+000,-2.706909e-004
1.536000e+000,-2.124023e-004
1.537000e+000,-2.944946e-005
1.538000e+000,8.010864e-005
1.539000e+000,-2.514648e-004
1.540000e+000,-4.194641e-004
1.541000e+000,-4.928589e-004
1.542000e+000,2.896118e-004
1.543000e+000,7.237244e-004
1.544000e+000,8.990479e-004
1.545000e+000,1.105347e-003
1.546000e+000,9.309387e-004
1.547000e+000,3.544617e-004
1.548000e+000,-1.089478e-004
1.549000e+000,-2.163696e-004
1.550000e+000,-7.812500e-005
1.551000e+000,-2.784729e-004
1.552000e+000,-5.401611e-004
1.553000e+000,-5.836487e-004
1.554000e+000,-3.935242e-004
1.555000e+000,-2.523804e-004
1.556000e+000,-3.840637e-004
1.557000e+000,-5.384827e-004
1.558000e+000,-1.264954e-004
1.559000e+000,1.419067e-004
1.560000e+000,4.312134e-004
1.561000e+000,6.748962e-004
1.562000e+000,7.617188e-004
1.563000e+000,5.955505e-004
1.564000e+000,2.752686e-004
1.565000e+000,6.805420e-005
1.566000e+000,-8.941650e-005
1.567000e+000,-1.803589e-004
1.568000e+000,-2.491760e-004
1.569000e+000,-3.070068e-004
1.570000e+000,-2.026367e-004
1.571000e+000,-1.234436e-004
1.572000e+000,1.042175e-004
1.573000e+000,3.549194e-004
1.574000e+000,1.737976e-004
1.575000e+000,1.220703e-005
1.576000e+000,-1.046753e-004
1.577000e+000,-3.749084e-004
1.578000e+000,-2.854919e-004
1.579000e+000,-3.341675e-005
1.580000e+000,2.798462e-004
1.581000e+000,6.730652e-004
1.582000e+000,8.079529e-004
1.583000e+000,5.908203e-004
1.584000e+000,1.596069e-004
1.585000e+000,-2.923584e-004
1.586000e+000,-5.239868e-004
1.587000e+000,-5.709839e-004
1.588000e+000,-2.107239e-004
1.589000e+000,3.370667e-004
1.590000e+000,3.147888e-004
1.591000e+000,1.019287e-004
1.592000e+000,1.248169e-004
1.593000e+000,2.090454e-005
1.594000e+000,-2.182007e-004
1.595000e+000,-1.638794e-004
1.596000e+000,-2.487183e-005
1.597000e+000,3.210449e-004
1.598000e+000,5.664062e-004
1.599000e+000,5.235291e-004
1.600000e+000,1.037598e-004
1.601000e+000,-3.547668e-004
1.602000e+000,-3.611755e-004
1.603000e+000,7.049561e-005
1.604000e+000,4.261780e-004
1.605000e+000,3.198242e-004
1.606000e+000,-1.007080e-005
1.607000e+000,-3.419495e-004
1.608000e+000,-4.028320e-004
1.609000e+000,-2.784729e-004
1.610000e+000,-7.934570e-005
1.611000e+000,1.560974e-004
1.612000e+000,1.953125e-004
1.613000e+000,-4.455566e-005
1.614000e+000,-1.437378e-004
1.615000e+000,-1.658630e-004
1.616000e+000,-3.767395e-004
1.617000e+000,-5.662537e-004
1.618000e+000,-5.264282e-005
1.619000e+000,4.541016e-004
1.620000e+000,8.784485e-004
1.621000e+000,7.971191e-004
1.622000e+000,5.633545e-004
1.623000e+000,2.297974e-004
1.624000e+000,7.629395e-005
1.625000e+000,7.019043e-006
1.626000e+000,-1.055908e-004
1.627000e+000,-1.138306e-004
1.628000e+000,-1.034546e-004
1.629000e+000,-7.614136e-005
1.630000e+000,-3.799438e-005
1.631000e+000,-6.729126e-005
1.632000e+000,-7.583618e-005
1.633000e+000,-1.036072e-004
1.634000e+000,-1.031494e-004
1.635000e+000,-2.288818e-005
1.636000e+000,1.078796e-004
1.637000e+000,2.166748e-004
1.638000e+000,1.834106e-004
1.639000e+000,8.483887e-005
1.640000e+000,2.471924e-005
1.641000e+000,1.861572e-005
1.642000e+000,3.677368e-005
1.643000e+000,3.479004e-005
1.644000e+000,3.768921e-005
1.645000e+000,4.028320e-005
1.646000e+000,4.394531e-005
1.647000e+000,4.730225e-005
1.648000e+000,5.325317e-005
1.649000e+000,5.874634e-005
1.650000e+000,5.737305e-005
1.651000e+000,5.035400e-005
1.652000e+000,4.318237e-005
1.653000e+000,4.180908e-005
1.654000e+000,4.364014e-005
1.655000e+000,4.562378e-005
1.656000e+000,4.898071e-005
1.657000e+000,5.081177e-005
1.658000e+000,4.714966e-005
1.659000e+000,4.013062e-005
1.660000e+000,3.845215e-005
1.661000e+000,3.921509e-005
1.662000e+000,3.921509e-005
1.663000e+000,4.623413e-005
1.664000e+000,5.081177e-005
1.665000e+000,4.562378e-005
1.666000e+000,4.623413e-005
1.667000e+000,4.745483e-005
1.668000e+000,4.943848e-005
1.669000e+000,4.165649e-005
1.670000e+000,3.967285e-005
1.671000e+000,4.455566e-005
1.672000e+000,4.501343e-005
1.673000e+000,4.302979e-005
1.674000e+000,4.287720e-005
1.675000e+000,3.738403e-005
1.676000e+000,2.792358e-005
1.677000e+000,2.670288e-005
1.678000e+000,3.768921e-005
1.679000e+000,4.516602e-005
1.680000e+000,4.714966e-005
1.681000e+000,4.211426e-005
1.682000e+000,4.486084e-005
1.683000e+000,4.562378e-005
1.684000e+000,4.394531e-005
1.685000e+000,3.341675e-005
1.686000e+000,3.051758e-005
1.687000e+000,3.738403e-005
1.688000e+000,4.135132e-005
1.689000e+000,4.028320e-005
1.690000e+000,3.845215e-005
1.691000e+000,3.936768e-005
1.692000e+000,4.165649e-005
1.693000e+000,3.997803e-005
1.694000e+000,4.608154e-005
1.695000e+000,5.538940e-005
1.696000e+000,5.615234e-005
1.697000e+000,4.699707e-005
1.698000e+000,4.516602e-005
1.699000e+000,3.295898e-005
1.700000e+000,1.907349e-005
1.701000e+000,1.739502e-005
1.702000e+000,2.990723e-005
1.703000e+000,6.484985e-005
1.704000e+000,9.445190e-005
1.705000e+000,1.141357e-004
1.706000e+000,9.536743e-005
1.707000e+000,6.103516e-005
1.708000e+000,4.440308e-005
1.709000e+000,4.165649e-005
1.710000e+000,3.082275e-005
1.711000e+000,1.983643e-005
1.712000e+000,9.918213e-006
1.713000e+000,1.571655e-005
1.714000e+000,2.685547e-005
1.715000e+000,4.791260e-005
1.716000e+000,4.684448e-005
1.717000e+000,4.058838e-005
1.718000e+000,3.173828e-005
1.719000e+000,2.609253e-005
1.720000e+000,2.883911e-005
1.721000e+000,2.609253e-005
1.722000e+000,4.089355e-005
1.723000e+000,5.416870e-005
1.724000e+000,4.653931e-005
1.725000e+000,4.714966e-005
1.726000e+000,5.371094e-005
1.727000e+000,5.737305e-005
1.728000e+000,5.249023e-005
1.729000e+000,4.089355e-005
1.730000e+000,3.463745e-005
1.731000e+000,3.677368e-005
1.732000e+000,4.318237e-005
1.733000e+000,4.302979e-005
1.734000e+000,4.562378e-005
1.735000e+000,4.898071e-005
1.736000e+000,4.470825e-005
1.737000e+000,3.921509e-005
1.738000e+000,4.196167e-005
1.739000e+000,4.623413e-005
1.740000e+000,4.959106e-005
1.741000e+000,5.767822e-005
1.742000e+000,4.760742e-005
1.743000e+000,4.821777e-005
1.744000e+000,5.493164e-005
1.745000e+000,5.416870e-005
1.746000e+000,4.821777e-005
1.747000e+000,4.318237e-005
1.748000e+000,4.348755e-005
1.749000e+000,4.425049e-005
1.750000e+000,4.043579e-005
1.751000e+000,3.677368e-005
1.752000e+000,3.173828e-005
1.753000e+000,3.021240e-005
1.754000e+000,3.692627e-005
1.755000e+000,3.234863e-005
1.756000e+000,3.479004e-005
1.757000e+000,5.172729e-005
1.758000e+000,6.668091e-005
1.759000e+000,7.186890e-005
1.760000e+000,5.569458e-005
1.761000e+000,4.104614e-005
1.762000e+000,4.348755e-005
1.763000e+000,4.638672e-005
1.764000e+000,4.486084e-005
1.765000e+000,4.119873e-005
1.766000e+000,3.570557e-005
1.767000e+000,2.655029e-005
1.768000e+000,2.685547e-005
1.769000e+000,3.677368e-005
1.770000e+000,5.004883e-005
1.771000e+000,4.791260e-005
1.772000e+000,4.135132e-005
1.773000e+000,4.318237e-005
1.774000e+000,4.272461e-005
1.775000e+000,4.165649e-005
1.776000e+000,3.723145e-005
1.777000e+000,3.616333e-005
1.778000e+000,4.241943e-005
1.779000e+000,4.989624e-005
1.780000e+000,5.371094e-005
1.781000e+000,4.714966e-005
1.782000e+000,3.463745e-005
1.783000e+000,3.524780e-005
1.784000e+000,3.936768e-005
1.785000e+000,3.585815e-005
1.786000e+000,3.723145e-005
1.787000e+000,4.425049e-005
1.788000e+000,5.020142e-005
1.789000e+000,4.257202e-005
1.790000e+000,4.852295e-005
1.791000e+000,6.698608e-005
1.792000e+000,6.835938e-005
1.793000e+000,6.271362e-005
1.794000e+000,5.111694e-005
1.795000e+000,3.646851e-005
1.796000e+000,3.341675e-005
1.797000e+000,3.448486e-005
1.798000e+000,3.768921e-005
1.799000e+000,4.272461e-005
1.800000e+000,4.058838e-005
1.801000e+000,3.662109e-005
1.802000e+000,3.601074e-005
1.803000e+000,3.646851e-005
1.804000e+000,4.257202e-005
1.805000e+000,4.760742e-005
1.806000e+000,4.974365e-005
1.807000e+000,4.745483e-005
1.808000e+000,4.455566e-005
1.809000e+000,4.089355e-005
1.810000e+000,4.119873e-005
1.811000e+000,3.982544e-005
1.812000e+000,4.379272e-005
1.813000e+000,4.165649e-005
1.814000e+000,3.982544e-005
1.815000e+000,4.058838e-005
1.816000e+000,4.135132e-005
1.817000e+000,4.302979e-005
1.818000e+000,4.745483e-005
1.819000e+000,4.562378e-005
1.820000e+000,4.776001e-005
1.821000e+000,4.806519e-005
1.822000e+000,3.829956e-005
1.823000e+000,4.821777e-005
1.824000e+000,5.584717e-005
1.825000e+000,6.149292e-005
1.826000e+000,4.562378e-005
1.827000e+000,3.829956e-005
1.828000e+000,4.531860e-005
1.829000e+000,3.753662e-005
1.830000e+000,3.082275e-005
1.831000e+000,3.173828e-005
1.832000e+000,3.982544e-005
1.833000e+000,3.906250e-005
1.834000e+000,4.531860e-005
1.835000e+000,5.371094e-005
1.836000e+000,7.507324e-005
1.837000e+000,6.179810e-005
1.838000e+000,3.738403e-005
1.839000e+000,3.158569e-005
1.840000e+000,3.402710e-005
1.841000e+000,2.990723e-005
1.842000e+000,3.082275e-005
1.843000e+000,3.555298e-005
1.844000e+000,3.845215e-005
1.845000e+000,5.050659e-005
1.846000e+000,5.813599e-005
1.847000e+000,5.416870e-005
1.848000e+000,4.608154e-005
1.849000e+000,3.997803e-005
1.850000e+000,3.295898e-005
1.851000e+000,3.952026e-005
1.852000e+000,4.257202e-005
1.853000e+000,4.119873e-005
1.854000e+000,4.394531e-005
1.855000e+000,4.592896e-005
1.856000e+000,4.211426e-005
1.857000e+000,4.364014e-005
1.858000e+000,4.684448e-005
1.859000e+000,4.837036e-005
1.860000e+000,4.638672e-005
1.861000e+000,4.486084e-005
1.862000e+000,4.211426e-005
1.863000e+000,4.577637e-005
1.864000e+000,5.111694e-005
1.865000e+000,4.974365e-005
1.866000e+000,5.035400e-005
1.867000e+000,5.233765e-005
1.868000e+000,4.776001e-005
1.869000e+000,3.875732e-005
1.870000e+000,4.028320e-005
1.871000e+000,4.257202e-005
1.872000e+000,4.089355e-005
1.873000e+000,3.952026e-005
1.874000e+000,3.524780e-005
1.875000e+000,3.845215e-005
1.876000e+000,4.394531e-005
1.877000e+000,4.730225e-005
1.878000e+000,3.875732e-005
1.879000e+000,3.341675e-005
1.880000e+000,3.295898e-005
1.881000e+000,4.470825e-005
1.882000e+000,5.554199e-005
1.883000e+000,5.233765e-005
1.884000e+000,4.714966e-005
1.885000e+000,4.226685e-005
1.886000e+000,4.089355e-005
1.887000e+000,4.470825e-005
1.888000e+000,4.135132e-005
1.889000e+000,4.714966e-005
1.890000e+000,4.623413e-005
1.891000e+000,4.486084e-005
1.892000e+000,4.165649e-005
1.893000e+000,4.257202e-005
1.894000e+000,3.677368e-005
1.895000e+000,3.570557e-005
1.896000e+000,3.860474e-005
1.897000e+000,4.562378e-005
1.898000e+000,4.882813e-005
1.899000e+000,5.401611e-005
1.900000e+000,4.806519e-005
1.901000e+000,4.180908e-005
1.902000e+000,4.684448e-005
1.903000e+000,4.760742e-005
1.904000e+000,4.272461e-005
1.905000e+000,4.165649e-005
1.906000e+000,4.241943e-005
1.907000e+000,4.302979e-005
1.908000e+000,4.241943e-005
1.909000e+000,4.226685e-005
1.910000e+000,4.684448e-005
1.911000e+000,4.470825e-005
1.912000e+000,4.333496e-005
1.913000e+000,4.531860e-005
1.914000e+000,3.280640e-005
1.915000e+000,3.494263e-005
1.916000e+000,4.074097e-005
1.917000e+000,4.699707e-005
1.918000e+000,4.867554e-005
1.919000e+000,5.157471e-005
1.920000e+000,4.852295e-005
1.921000e+000,4.638672e-005
1.922000e+000,4.592896e-005
1.923000e+000,4.013062e-005
1.924000e+000,3.417969e-005
1.925000e+000,4.638672e-005
1.926000e+000,4.455566e-005
1.927000e+000,4.623413e-005
1.928000e+000,4.531860e-005
1.929000e+000,4.837036e-005
1.930000e+000,4.745483e-005
1.931000e+000,4.486084e-005
1.932000e+000,3.936768e-005
1.933000e+000,4.135132e-005
1.934000e+000,4.119873e-005
1.935000e+000,4.104614e-005
1.936000e+000,4.577637e-005
1.937000e+000,4.287720e-005
1.938000e+000,3.799438e-005
1.939000e+000,4.302979e-005
1.940000e+000,5.111694e-005
1.941000e+000,4.119873e-005
1.942000e+000,4.196167e-005
1.943000e+000,4.272461e-005
1.944000e+000,4.348755e-005
1.945000e+000,4.135132e-005
1.946000e+000,4.486084e-005
1.947000e+000,4.959106e-005
1.948000e+000,4.989624e-005
1.949000e+000,5.187988e-005
1.950000e+000,4.119873e-005
1.951000e+000,3.723145e-005
1.952000e+000,3.677368e-005
1.953000e+000,3.768921e-005
1.954000e+000,3.723145e-005
1.955000e+000,3.875732e-005
1.956000e+000,4.608154e-005
1.957000e+000,5.020142e-005
1.958000e+000,4.745483e-005
1.959000e+000,4.592896e-005
1.960000e+000,4.531860e-005
1.961000e+000,4.211426e-005
1.962000e+000,3.784180e-005
1.963000e+000,2.914429e-005
1.964000e+000,4.135132e-005
1.965000e+000,4.959106e-005
1.966000e+000,5.828857e-005
1.967000e+000,6.011963e-005
1.968000e+000,5.523682e-005
1.969000e+000,3.952026e-005
1.970000e+000,4.760742e-005
1.971000e+000,4.776001e-005
1.972000e+000,4.394531e-005
1.973000e+000,3.967285e-005
1.974000e+000,5.065918e-005
1.975000e+000,6.469727e-005
1.976000e+000,5.691528e-005
1.977000e+000,4.089355e-005
1.978000e+000,3.128052e-005
1.979000e+000,3.158569e-005
1.980000e+000,3.295898e-005
1.981000e+000,3.219604e-005
1.982000e+000,3.067017e-005
1.983000e+000,3.677368e-005
1.984000e+000,4.180908e-005
1.985000e+000,4.028320e-005
1.986000e+000,4.104614e-005
1.987000e+000,4.455566e-005
1.988000e+000,4.486084e-005
1.989000e+000,4.364014e-005
1.990000e+000,4.516602e-005
1.991000e+000,4.562378e-005
1.992000e+000,4.653931e-005
1.993000e+000,4.653931e-005
1.994000e+000,4.425049e-005
1.995000e+000,4.135132e-005
1.996000e+000,3.799438e-005
1.997000e+000,4.776001e-005
1.998000e+000,4.837036e-005
1.999000e+000,5.020142e-005
2.000000e+000,4.898071e-005
2.001000e+000,4.760742e-005
2.002000e+000,4.501343e-005
2.003000e+000,4.531860e-005
2.004000e+000,4.302979e-005
2.005000e+000,4.486084e-005
2.006000e+000,5.035400e-005
2.007000e+000,5.508423e-005
2.008000e+000,4.760742e-005
2.009000e+000,4.364014e-005
2.010000e+000,4.058838e-005
2.011000e+000,4.180908e-005
2.012000e+000,3.845215e-005
2.013000e+000,3.616333e-005
2.014000e+000,3.570557e-005
2.015000e+000,3.479004e-005
2.016000e+000,4.531860e-005
2.017000e+000,4.776001e-005
2.018000e+000,4.364014e-005
2.019000e+000,4.547119e-005
2.020000e+000,4.730225e-005
2.021000e+000,4.714966e-005
2.022000e+000,3.753662e-005
2.023000e+000,4.211426e-005
2.024000e+000,4.516602e-005
2.025000e+000,4.455566e-005
2.026000e+000,4.577637e-005
2.027000e+000,4.348755e-005
2.028000e+000,4.226685e-005
2.029000e+000,4.425049e-005
2.030000e+000,4.211426e-005
2.031000e+000,4.577637e-005
2.032000e+000,4.364014e-005
2.033000e+000,3.067017e-005
2.034000e+000,4.180908e-005
2.035000e+000,4.562378e-005
2.036000e+000,4.364014e-005
2.037000e+000,4.516602e-005
2.038000e+000,4.882813e-005
2.039000e+000,3.982544e-005
2.040000e+000,4.104614e-005
2.041000e+000,4.714966e-005
2.042000e+000,4.867554e-005
2.043000e+000,4.531860e-005
2.044000e+000,4.638672e-005
2.045000e+000,4.684448e-005
2.046000e+000,4.989624e-005
2.047000e+000,4.440308e-005
2.048000e+000,4.730225e-005
2.049000e+000,5.035400e-005
2.050000e+000,4.440308e-005
2.051000e+000,3.707886e-005
2.052000e+000,4.028320e-005
2.053000e+000,4.470825e-005
2.054000e+000,4.302979e-005
2.055000e+000,3.570557e-005
2.056000e+000,2.929687e-005
2.057000e+000,4.196167e-005
2.058000e+000,4.760742e-005
2.059000e+000,4.562378e-005
2.060000e+000,4.501343e-005
2.061000e+000,3.753662e-005
2.062000e+000,3.646851e-005
2.063000e+000,3.906250e-005
2.064000e+000,5.950928e-005
2.065000e+000,6.423950e-005
2.066000e+000,6.362915e-005
2.067000e+000,4.425049e-005
2.068000e+000,3.936768e-005
2.069000e+000,3.128052e-005
2.070000e+000,3.906250e-005
2.071000e+000,4.653931e-005
2.072000e+000,6.820679e-005
2.073000e+000,7.263184e-005
2.074000e+000,4.776001e-005
2.075000e+000,3.082275e-005
2.076000e+000,2.609253e-005
2.077000e+000,2.593994e-005
2.078000e+000,2.807617e-005
2.079000e+000,2.746582e-005
2.080000e+000,3.204346e-005
2.081000e+000,3.494263e-005
2.082000e+000,4.333496e-005
2.083000e+000,4.425049e-005
2.084000e+000,4.791260e-005
2.085000e+000,4.745483e-005
2.086000e+000,4.898071e-005
2.087000e+000,4.638672e-005
2.088000e+000,4.943848e-005
2.089000e+000,4.776001e-005
2.090000e+000,5.081177e-005
2.091000e+000,4.608154e-005
2.092000e+000,4.318237e-005
2.093000e+000,3.692627e-005
2.094000e+000,3.280640e-005
2.095000e+000,3.601074e-005
2.096000e+000,3.326416e-005
2.097000e+000,3.540039e-005
2.098000e+000,4.440308e-005
2.099000e+000,5.340576e-005
2.100000e+000,6.896973e-005
2.101000e+000,5.844116e-005
2.102000e+000,5.065918e-005
2.103000e+000,5.310059e-005
2.104000e+000,5.157471e-005
2.105000e+000,4.394531e-005
2.106000e+000,4.318237e-005
2.107000e+000,3.814697e-005
2.108000e+000,3.677368e-005
2.109000e+000,3.646851e-005
2.110000e+000,3.860474e-005
2.111000e+000,4.013062e-005
2.112000e+000,5.142212e-005
2.113000e+000,5.020142e-005
2.114000e+000,2.990723e-005
2.115000e+000,4.043579e-005
2.116000e+000,4.699707e-005
2.117000e+000,4.989624e-005
2.118000e+000,4.608154e-005
2.119000e+000,4.104614e-005
2.120000e+000,4.013062e-005
2.121000e+000,4.211426e-005
2.122000e+000,4.119873e-005
2.123000e+000,3.799438e-005
2.124000e+000,3.997803e-005
2.125000e+000,4.455566e-005
2.126000e+000,4.653931e-005
2.127000e+000,4.608154e-005
2.128000e+000,4.501343e-005
2.129000e+000,4.562378e-005
2.130000e+000,4.333496e-005
2.131000e+000,4.714966e-005
2.132000e+000,4.577637e-005
2.133000e+000,4.394531e-005
2.134000e+000,4.302979e-005
2.135000e+000,4.837036e-005
2.136000e+000,4.623413e-005
2.137000e+000,4.653931e-005
2.138000e+000,4.302979e-005
2.139000e+000,4.058838e-005
2.140000e+000,4.272461e-005
2.141000e+000,4.364014e-005
2.142000e+000,4.470825e-005
2.143000e+000,4.272461e-005
2.144000e+000,3.936768e-005
2.145000e+000,4.287720e-005
2.146000e+000,4.333496e-005
2.147000e+000,4.440308e-005
2.148000e+000,4.074097e-005
2.149000e+000,4.394531e-005
2.150000e+000,4.135132e-005
2.151000e+000,3.524780e-005
2.152000e+000,3.921509e-005
2.153000e+000,4.089355e-005
2.154000e+000,4.119873e-005
2.155000e+000,4.440308e-005
2.156000e+000,4.806519e-005
2.157000e+000,4.867554e-005
2.158000e+000,5.142212e-005
2.159000e+000,5.187988e-005
2.160000e+000,4.028320e-005
2.161000e+000,4.623413e-005
2.162000e+000,4.791260e-005
2.163000e+000,4.562378e-005
2.164000e+000,4.226685e-005
2.165000e+000,4.287720e-005
2.166000e+000,4.486084e-005
2.167000e+000,4.745483e-005
2.168000e+000,4.837036e-005
2.169000e+000,4.531860e-005
2.170000e+000,4.104614e-005
2.171000e+000,4.837036e-005
2.172000e+000,4.943848e-005
2.173000e+000,3.082275e-005
2.174000e+000,2.655029e-005
2.175000e+000,2.960205e-005
2.176000e+000,3.417969e-005
2.177000e+000,4.272461e-005
2.178000e+000,4.058838e-005
2.179000e+000,4.867554e-005
2.180000e+000,5.508423e-005
2.181000e+000,5.096436e-005
2.182000e+000,5.355835e-005
2.183000e+000,4.943848e-005
2.184000e+000,4.623413e-005
2.185000e+000,4.440308e-005
2.186000e+000,4.531860e-005
2.187000e+000,4.241943e-005
2.188000e+000,4.974365e-005
2.189000e+000,4.165649e-005
2.190000e+000,3.601074e-005
2.191000e+000,4.516602e-005
2.192000e+000,4.135132e-005
2.193000e+000,2.960205e-005
2.194000e+000,2.914429e-005
2.195000e+000,4.028320e-005
2.196000e+000,5.661011e-005
2.197000e+000,6.469727e-005
2.198000e+000,6.271362e-005
2.199000e+000,5.569458e-005
2.200000e+000,4.547119e-005
2.201000e+000,4.562378e-005
2.202000e+000,4.913330e-005
2.203000e+000,4.653931e-005
2.204000e+000,3.829956e-005
2.205000e+000,2.670288e-005
2.206000e+000,2.029419e-005
2.207000e+000,4.364014e-005
2.208000e+000,5.126953e-005
2.209000e+000,5.584717e-005
2.210000e+000,5.096436e-005
2.211000e+000,3.875732e-005
2.212000e+000,3.295898e-005
2.213000e+000,3.082275e-005
2.214000e+000,3.463745e-005
2.215000e+000,4.211426e-005
2.216000e+000,4.196167e-005
2.217000e+000,3.875732e-005
2.218000e+000,3.753662e-005
2.219000e+000,3.829956e-005
2.220000e+000,4.104614e-005
2.221000e+000,3.997803e-005
2.222000e+000,3.784180e-005
2.223000e+000,3.936768e-005
2.224000e+000,4.058838e-005
2.225000e+000,4.165649e-005
2.226000e+000,4.714966e-005
2.227000e+000,5.813599e-005
2.228000e+000,7.202148e-005
2.229000e+000,6.423950e-005
2.230000e+000,5.630493e-005
2.231000e+000,4.776001e-005
2.232000e+000,4.440308e-005
2.233000e+000,4.013062e-005
2.234000e+000,3.936768e-005
2.235000e+000,4.531860e-005
2.236000e+000,4.470825e-005
2.237000e+000,3.570557e-005
2.238000e+000,4.226685e-005
2.239000e+000,4.272461e-005
2.240000e+000,4.364014e-005
2.241000e+000,4.165649e-005
2.242000e+000,4.272461e-005
2.243000e+000,4.028320e-005
2.244000e+000,3.662109e-005
2.245000e+000,4.180908e-005
2.246000e+000,4.379272e-005
2.247000e+000,3.997803e-005
2.248000e+000,4.104614e-005
2.249000e+000,3.753662e-005
2.250000e+000,3.616333e-005
2.251000e+000,4.119873e-005
2.252000e+000,4.684448e-005
2.253000e+000,4.653931e-005
2.254000e+000,4.898071e-005
2.255000e+000,4.730225e-005
2.256000e+000,4.638672e-005
2.257000e+000,4.837036e-005
2.258000e+000,4.501343e-005
2.259000e+000,3.982544e-005
2.260000e+000,4.806519e-005
2.261000e+000,5.218506e-005
2.262000e+000,5.157471e-005
2.263000e+000,4.638672e-005
2.264000e+000,4.394531e-005
2.265000e+000,4.104614e-005
2.266000e+000,4.165649e-005
2.267000e+000,4.348755e-005
2.268000e+000,4.058838e-005
2.269000e+000,4.104614e-005
2.270000e+000,3.936768e-005
2.271000e+000,3.875732e-005
2.272000e+000,3.906250e-005
2.273000e+000,4.257202e-005
2.274000e+000,4.379272e-005
2.275000e+000,4.547119e-005
2.276000e+000,4.638672e-005
2.277000e+000,4.379272e-005
2.278000e+000,4.074097e-005
2.279000e+000,4.074097e-005
2.280000e+000,4.043579e-005
2.281000e+000,4.440308e-005
2.282000e+000,4.516602e-005
2.283000e+000,4.913330e-005
2.284000e+000,4.989624e-005
2.285000e+000,4.470825e-005
2.286000e+000,4.623413e-005
2.287000e+000,4.608154e-005
2.288000e+000,4.653931e-005
2.289000e+000,4.165649e-005
2.290000e+000,3.799438e-005
2.291000e+000,4.486084e-005
2.292000e+000,4.714966e-005
2.293000e+000,3.707886e-005
2.294000e+000,3.875732e-005
2.295000e+000,4.364014e-005
2.296000e+000,4.394531e-005
2.297000e+000,4.867554e-005
2.298000e+000,5.371094e-005
2.299000e+000,5.386353e-005
2.300000e+000,4.898071e-005
2.301000e+000,4.623413e-005
2.302000e+000,3.799438e-005
2.303000e+000,4.089355e-005
2.304000e+000,3.662109e-005
2.305000e+000,3.555298e-005
2.306000e+000,3.723145e-005
2.307000e+000,4.913330e-005
2.308000e+000,4.730225e-005
2.309000e+000,3.051758e-005
2.310000e+000,3.646851e-005
2.311000e+000,4.028320e-005
2.312000e+000,3.463745e-005
2.313000e+000,4.837036e-005
2.314000e+000,5.172729e-005
2.315000e+000,5.142212e-005
2.316000e+000,4.898071e-005
2.317000e+000,4.714966e-005
2.318000e+000,4.425049e-005
2.319000e+000,4.470825e-005
2.320000e+000,4.180908e-005
2.321000e+000,4.562378e-005
2.322000e+000,4.562378e-005
2.323000e+000,4.241943e-005
2.324000e+000,4.119873e-005
2.325000e+000,4.165649e-005
2.326000e+000,4.394531e-005
2.327000e+000,4.470825e-005
2.328000e+000,4.180908e-005
2.329000e+000,4.043579e-005
2.330000e+000,3.921509e-005
2.331000e+000,3.646851e-005
2.332000e+000,3.814697e-005
2.333000e+000,4.302979e-005
2.334000e+000,3.845215e-005
2.335000e+000,2.822876e-005
2.336000e+000,1.663208e-005
2.337000e+000,3.494263e-005
2.338000e+000,5.538940e-005
2.339000e+000,6.958008e-005
2.340000e+000,9.582520e-005
2.341000e+000,8.071899e-005
2.342000e+000,5.767822e-005
2.343000e+000,5.554199e-005
2.344000e+000,4.745483e-005
2.345000e+000,4.089355e-005
2.346000e+000,4.791260e-005
2.347000e+000,3.829956e-005
2.348000e+000,2.685547e-005
2.349000e+000,2.899170e-005
2.350000e+000,2.639771e-005
2.351000e+000,3.509521e-005
2.352000e+000,4.104614e-005
2.353000e+000,3.250122e-005
2.354000e+000,3.829956e-005
2.355000e+000,3.570557e-005
2.356000e+000,3.723145e-005
2.357000e+000,3.234863e-005
2.358000e+000,3.906250e-005
2.359000e+000,4.302979e-005
2.360000e+000,4.257202e-005
2.361000e+000,4.211426e-005
2.362000e+000,4.119873e-005
2.363000e+000,4.837036e-005
2.364000e+000,5.905151e-005
2.365000e+000,5.737305e-005
2.366000e+000,4.730225e-005
2.367000e+000,2.777100e-005
2.368000e+000,4.211426e-005
2.369000e+000,3.738403e-005
2.370000e+000,4.806519e-005
2.371000e+000,5.493164e-005
2.372000e+000,4.776001e-005
2.373000e+000,5.020142e-005
2.374000e+000,5.142212e-005
2.375000e+000,4.913330e-005
2.376000e+000,4.302979e-005
2.377000e+000,4.379272e-005
2.378000e+000,4.638672e-005
2.379000e+000,4.714966e-005
2.380000e+000,4.196167e-005
2.381000e+000,4.074097e-005
2.382000e+000,4.302979e-005
2.383000e+000,4.455566e-005
2.384000e+000,4.455566e-005
2.385000e+000,4.486084e-005
2.386000e+000,4.714966e-005
2.387000e+000,4.623413e-005
2.388000e+000,4.577637e-005
2.389000e+000,3.814697e-005
2.390000e+000,3.509521e-005
2.391000e+000,3.646851e-005
2.392000e+000,4.043579e-005
2.393000e+000,3.662109e-005
2.394000e+000,4.135132e-005
2.395000e+000,3.814697e-005
2.396000e+000,4.013062e-005
2.397000e+000,4.272461e-005
2.398000e+000,4.470825e-005
2.399000e+000,4.898071e-005
2.400000e+000,5.035400e-005
2.401000e+000,5.081177e-005
2.402000e+000,4.882813e-005
2.403000e+000,4.791260e-005
2.404000e+000,4.760742e-005
2.405000e+000,4.348755e-005
2.406000e+000,4.241943e-005
2.407000e+000,4.821777e-005
2.408000e+000,4.043579e-005
2.409000e+000,3.738403e-005
2.410000e+000,4.425049e-005
2.411000e+000,4.364014e-005
2.412000e+000,4.730225e-005
2.413000e+000,4.348755e-005
2.414000e+000,4.043579e-005
2.415000e+000,4.562378e-005
2.416000e+000,4.638672e-005
2.417000e+000,4.516602e-005
2.418000e+000,4.547119e-005
2.419000e+000,4.165649e-005
2.420000e+000,4.562378e-005
2.421000e+000,4.104614e-005
2.422000e+000,3.341675e-005
2.423000e+000,2.929687e-005
2.424000e+000,2.777100e-005
2.425000e+000,3.173828e-005
2.426000e+000,3.204346e-005
2.427000e+000,4.455566e-005
2.428000e+000,4.180908e-005
2.429000e+000,4.119873e-005
2.430000e+000,5.874634e-005
2.431000e+000,5.737305e-005
2.432000e+000,5.554199e-005
2.433000e+000,6.942749e-005
2.434000e+000,6.988525e-005
2.435000e+000,5.859375e-005
2.436000e+000,3.723145e-005
2.437000e+000,3.601074e-005
2.438000e+000,4.699707e-005
2.439000e+000,4.180908e-005
2.440000e+000,3.219604e-005
2.441000e+000,2.151489e-005
2.442000e+000,2.395630e-005
2.443000e+000,3.173828e-005
2.444000e+000,3.692627e-005
2.445000e+000,4.562378e-005
2.446000e+000,1.541138e-005
2.447000e+000,-3.967285e-006
2.448000e+000,1.770020e-005
2.449000e+000,7.156372e-005
2.450000e+000,1.081848e-004
2.451000e+000,1.379395e-004
2.452000e+000,1.257324e-004
2.453000e+000,8.529663e-005
2.454000e+000,5.554199e-005
2.455000e+000,3.265381e-005
2.456000e+000,1.480103e-005
2.457000e+000,1.388550e-005
2.458000e+000,7.629395e-006
2.459000e+000,3.051758e-006
2.460000e+000,1.373291e-006
2.461000e+000,1.037598e-005
2.462000e+000,1.739502e-005
2.463000e+000,2.258301e-005
2.464000e+000,3.753662e-005
2.465000e+000,5.340576e-005
2.466000e+000,1.205444e-005
2.467000e+000,-1.632690e-005
2.468000e+000,-5.950928e-006
2.469000e+000,-1.754761e-005
2.470000e+000,-2.227783e-005
2.471000e+000,9.338379e-005
2.472000e+000,2.746582e-004
2.473000e+000,7.492065e-005
2.474000e+000,-7.064819e-005
2.475000e+000,-2.334595e-005
2.476000e+000,7.598877e-005
2.477000e+000,1.382446e-004
2.478000e+000,1.939392e-004
2.479000e+000,2.122498e-004
2.480000e+000,3.059387e-004
2.481000e+000,2.868652e-005
2.482000e+000,-2.146912e-004
2.483000e+000,-1.974487e-004
2.484000e+000,7.095337e-005
2.485000e+000,2.549744e-004
2.486000e+000,2.757263e-004
2.487000e+000,2.186584e-004
2.488000e+000,1.374817e-004
2.489000e+000,-8.087158e-006
2.490000e+000,-1.039124e-004
2.491000e+000,-1.364136e-004
2.492000e+000,-1.596069e-004
2.493000e+000,-1.991272e-004
2.494000e+000,-6.134033e-005
2.495000e+000,-9.048462e-005
2.496000e+000,-1.774597e-004
2.497000e+000,-7.736206e-005
2.498000e+000,5.264282e-005
2.499000e+000,-4.669189e-005
2.500000e+000,-5.187988e-006
2.501000e+000,2.439880e-004
2.502000e+000,1.756287e-004
2.503000e+000,1.686096e-004
2.504000e+000,3.330994e-004
2.505000e+000,4.481506e-004
2.506000e+000,3.228760e-004
2.507000e+000,1.548767e-004
2.508000e+000,1.176453e-004
2.509000e+000,3.860474e-005
2.510000e+000,-2.055359e-004
2.511000e+000,-4.711914e-004
2.512000e+000,-3.852844e-004
2.513000e+000,-9.094238e-005
2.514000e+000,1.399231e-004
2.515000e+000,2.033997e-004
2.516000e+000,3.921509e-004
2.517000e+000,9.384155e-005
2.518000e+000,-1.931763e-004
2.519000e+000,-1.927185e-004
2.520000e+000,1.068115e-004
2.521000e+000,4.333496e-004
2.522000e+000,5.612183e-004
2.523000e+000,2.247620e-004
2.524000e+000,-3.559875e-004
2.525000e+000,-5.955505e-004
2.526000e+000,-3.182983e-004
2.527000e+000,1.196289e-004
2.528000e+000,1.937866e-004
2.529000e+000,3.225708e-004
2.530000e+000,5.412292e-004
2.531000e+000,3.207397e-004
2.532000e+000,5.493164e-005
2.533000e+000,1.432800e-004
2.534000e+000,1.208496e-004
2.535000e+000,2.044678e-004
2.536000e+000,1.190186e-004
2.537000e+000,-5.279541e-005
2.538000e+000,-1.922607e-005
2.539000e+000,-2.606201e-004
2.540000e+000,-5.104065e-004
2.541000e+000,-5.308533e-004
2.542000e+000,-4.905701e-004
2.543000e+000,-3.507996e-004
2.544000e+000,-8.056641e-005
2.545000e+000,2.523804e-004
2.546000e+000,3.222656e-004
2.547000e+000,3.762817e-004
2.548000e+000,4.524231e-004
2.549000e+000,4.699707e-004
2.550000e+000,4.113770e-004
2.551000e+000,3.108215e-004
2.552000e+000,-4.499817e-004
2.553000e+000,-7.916260e-004
2.554000e+000,-5.062866e-004
2.555000e+000,-4.687500e-004
2.556000e+000,-3.575134e-004
2.557000e+000,1.016235e-004
2.558000e+000,7.746887e-004
2.559000e+000,8.746338e-004
2.560000e+000,7.698059e-004
2.561000e+000,5.111694e-004
2.562000e+000,2.239990e-004
2.563000e+000,1.518250e-004
2.564000e+000,2.441406e-004
2.565000e+000,2.238464e-004
2.566000e+000,2.711487e-004
2.567000e+000,1.792908e-004
2.568000e+000,-1.437378e-004
2.569000e+000,-1.022339e-004
2.570000e+000,-3.295898e-005
2.571000e+000,-3.616333e-004
2.572000e+000,-4.840088e-004
2.573000e+000,-3.109741e-004
2.574000e+000,-5.027771e-004
2.575000e+000,-4.682922e-004
2.576000e+000,6.256104e-006
2.577000e+000,2.008057e-004
2.578000e+000,9.155273e-006
2.579000e+000,7.431030e-005
2.580000e+000,3.904724e-004
2.581000e+000,4.376221e-004
2.582000e+000,4.769897e-004
2.583000e+000,3.791809e-004
2.584000e+000,2.326965e-004
2.585000e+000,-1.495361e-005
2.586000e+000,-2.310181e-004
2.587000e+000,-3.634644e-004
2.588000e+000,-3.713989e-004
2.589000e+000,-2.537537e-004
2.590000e+000,-1.425171e-004
2.591000e+000,2.807617e-005
2.592000e+000,-2.517700e-005
2.593000e+000,-2.174377e-004
2.594000e+000,-1.223755e-004
2.595000e+000,2.813721e-004
2.596000e+000,3.359985e-004
2.597000e+000,-8.010864e-005
2.598000e+000,-1.081848e-004
2.599000e+000,2.314758e-004
2.600000e+000,6.416321e-004
2.601000e+000,8.021545e-004
2.602000e+000,8.322144e-004
2.603000e+000,5.895996e-004
2.604000e+000,2.880859e-004
2.605000e+000,3.967285e-006
2.606000e+000,-3.195190e-004
2.607000e+000,-8.311462e-004
2.608000e+000,-9.489441e-004
2.609000e+000,-5.094910e-004
2.610000e+000,6.134033e-005
2.611000e+000,4.661560e-004
2.612000e+000,6.565857e-004
2.613000e+000,4.789734e-004
2.614000e+000,6.500244e-005
2.615000e+000,6.378174e-005
2.616000e+000,1.734924e-004
2.617000e+000,-3.524780e-004
2.618000e+000,-6.381226e-004
2.619000e+000,-4.411316e-004
2.620000e+000,-1.327515e-004
2.621000e+000,-4.104614e-005
2.622000e+000,1.449585e-005
2.623000e+000,-1.373291e-006
2.624000e+000,4.501343e-005
2.625000e+000,1.245117e-004
2.626000e+000,3.027344e-004
2.627000e+000,2.789307e-004
2.628000e+000,1.818848e-004
2.629000e+000,1.841736e-004
2.630000e+000,1.104736e-004
2.631000e+000,-1.193237e-004
2.632000e+000,-7.980347e-005
2.633000e+000,2.694702e-004
2.634000e+000,7.049561e-004
2.635000e+000,9.495544e-004
2.636000e+000,4.272461e-004
2.637000e+000,-9.704590e-005
2.638000e+000,-2.540588e-004
2.639000e+000,-2.632141e-004
2.640000e+000,-2.317810e-004
2.641000e+000,-1.925659e-004
2.642000e+000,-2.616882e-004
2.643000e+000,-1.820374e-004
2.644000e+000,-2.523804e-004
2.645000e+000,-5.918884e-004
2.646000e+000,-5.665588e-004
2.647000e+000,1.026917e-004
2.648000e+000,4.403687e-004
2.649000e+000,-1.525879e-005
2.650000e+000,3.601074e-005
2.651000e+000,4.092407e-004
2.652000e+000,8.131409e-004
2.653000e+000,9.466553e-004
2.654000e+000,6.900024e-004
2.655000e+000,2.754211e-004
2.656000e+000,-1.182556e-004
2.657000e+000,-4.850769e-004
2.658000e+000,-5.572510e-004
2.659000e+000,-5.151367e-004
2.660000e+000,-4.949951e-004
2.661000e+000,-3.894043e-004
2.662000e+000,-1.029968e-004
2.663000e+000,-5.737305e-005
2.664000e+000,6.011963e-005
2.665000e+000,3.073120e-004
2.666000e+000,5.586243e-004
2.667000e+000,5.464172e-004
2.668000e+000,3.936768e-004
2.669000e+000,2.467346e-004
2.670000e+000,-7.568359e-005
2.671000e+000,-3.564453e-004
2.672000e+000,-3.161621e-004
2.673000e+000,-1.948547e-004
2.674000e+000,8.407593e-005
2.675000e+000,5.264282e-004
2.676000e+000,7.044983e-004
2.677000e+000,2.647400e-004
2.678000e+000,-1.774597e-004
2.679000e+000,-1.823425e-004
2.680000e+000,-2.960205e-005
2.681000e+000,1.182556e-004
2.682000e+000,1.062012e-004
2.683000e+000,2.532959e-004
2.684000e+000,8.697510e-005
2.685000e+000,-2.789307e-004
2.686000e+000,-4.063416e-004
2.687000e+000,-2.497864e-004
2.688000e+000,1.342773e-005
2.689000e+000,2.548218e-005
2.690000e+000,5.279541e-005
2.691000e+000,1.203918e-004
2.692000e+000,3.271484e-004
2.693000e+000,2.919006e-004
2.694000e+000,-7.797241e-005
2.695000e+000,-1.013184e-004
2.696000e+000,1.995850e-004
2.697000e+000,3.266907e-004
2.698000e+000,2.697754e-004
2.699000e+000,3.997803e-005
2.700000e+000,-3.096008e-004
2.701000e+000,-3.862000e-004
2.702000e+000,-3.273010e-004
2.703000e+000,-2.421570e-004
2.704000e+000,-4.989624e-005
2.705000e+000,9.963989e-005
2.706000e+000,3.306580e-004
2.707000e+000,3.030396e-004
2.708000e+000,1.879883e-004
2.709000e+000,-9.796143e-005
2.710000e+000,-3.010559e-004
2.711000e+000,-2.560425e-004
2.712000e+000,1.815796e-004
2.713000e+000,4.158020e-004
2.714000e+000,6.581116e-004
2.715000e+000,7.029724e-004
2.716000e+000,4.675293e-004
2.717000e+000,1.663208e-004
2.718000e+000,-1.229858e-004
2.719000e+000,-1.441956e-004
2.720000e+000,-1.109314e-004
2.721000e+000,-2.767944e-004
2.722000e+000,-1.689148e-004
2.723000e+000,1.345825e-004
2.724000e+000,2.108765e-004
2.725000e+000,-3.500366e-004
2.726000e+000,-6.750488e-004
2.727000e+000,-3.330994e-004
2.728000e+000,1.509094e-004
2.729000e+000,2.766418e-004
2.730000e+000,2.633667e-004
2.731000e+000,2.091980e-004
2.732000e+000,1.379395e-004
2.733000e+000,1.104736e-004
2.734000e+000,1.464844e-005
2.735000e+000,1.095581e-004
2.736000e+000,3.216553e-004
2.737000e+000,2.507019e-004
2.738000e+000,3.189087e-005
2.739000e+000,-1.651001e-004
2.740000e+000,-3.144836e-004
2.741000e+000,-4.103088e-004
2.742000e+000,-2.185059e-004
2.743000e+000,-5.004883e-005
2.744000e+000,-1.490784e-004
2.745000e+000,7.476807e-005
2.746000e+000,4.470825e-004
2.747000e+000,6.501770e-004
2.748000e+000,6.575012e-004
2.749000e+000,3.656006e-004
2.750000e+000,1.174927e-005
2.751000e+000,-2.644348e-004
2.752000e+000,-4.014587e-004
2.753000e+000,-2.557373e-004
2.754000e+000,6.347656e-005
2.755000e+000,4.388428e-004
2.756000e+000,3.852844e-004
2.757000e+000,2.656555e-004
2.758000e+000,1.481628e-004
2.759000e+000,-5.661011e-005
2.760000e+000,-2.595520e-004
2.761000e+000,-4.371643e-004
2.762000e+000,-5.104065e-004
2.763000e+000,-1.733398e-004
2.764000e+000,2.200317e-004
2.765000e+000,3.373718e-004
2.766000e+000,4.067993e-004
2.767000e+000,2.626038e-004
2.768000e+000,-8.926392e-005
2.769000e+000,-2.325439e-004
2.770000e+000,-2.729797e-004
2.771000e+000,-4.312134e-004
2.772000e+000,-2.406311e-004
2.773000e+000,7.644653e-005
2.774000e+000,-1.776123e-004
2.775000e+000,-8.850098e-005
2.776000e+000,3.846741e-004
2.777000e+000,8.932495e-004
2.778000e+000,1.047211e-003
2.779000e+000,7.868958e-004
2.780000e+000,6.620789e-004
2.781000e+000,3.726196e-004
2.782000e+000,1.275635e-004
2.783000e+000,-1.737976e-004
2.784000e+000,-6.256104e-004
2.785000e+000,-8.024597e-004
2.786000e+000,-8.076477e-004
2.787000e+000,-5.444336e-004
2.788000e+000,-1.200867e-004
2.789000e+000,2.021790e-004
2.790000e+000,4.010010e-004
2.791000e+000,9.140015e-005
2.792000e+000,-2.853394e-005
2.793000e+000,5.737305e-005
2.794000e+000,-4.379272e-005
2.795000e+000,-4.388428e-004
2.796000e+000,-4.798889e-004
2.797000e+000,-4.867554e-005
2.798000e+000,4.742432e-004
2.799000e+000,7.699585e-004
2.800000e+000,9.432983e-004
2.801000e+000,7.225037e-004
2.802000e+000,8.941650e-005
2.803000e+000,-3.686523e-004
2.804000e+000,-5.372620e-004
2.805000e+000,-3.251648e-004
2.806000e+000,6.423950e-005
2.807000e+000,4.133606e-004
2.808000e+000,5.076599e-004
2.809000e+000,3.396606e-004
2.810000e+000,-2.334595e-005
2.811000e+000,-2.905273e-004
2.812000e+000,-5.184937e-004
2.813000e+000,-4.682922e-004
2.814000e+000,-2.017212e-004
2.815000e+000,-6.408691e-006
2.816000e+000,1.689148e-004
2.817000e+000,1.042175e-004
2.818000e+000,-1.095581e-004
2.819000e+000,-1.338196e-004
2.820000e+000,6.408691e-006
2.821000e+000,1.341248e-004
2.822000e+000,2.592468e-004
2.823000e+000,3.503418e-004
2.824000e+000,4.093933e-004
2.825000e+000,5.401611e-004
2.826000e+000,4.946899e-004
2.827000e+000,1.785278e-004
2.828000e+000,-2.525330e-004
2.829000e+000,-5.448914e-004
2.830000e+000,-2.943420e-004
2.831000e+000,3.178406e-004
2.832000e+000,6.250000e-004
2.833000e+000,3.152466e-004
2.834000e+000,-2.830505e-004
2.835000e+000,-3.836060e-004
2.836000e+000,-1.124573e-004
2.837000e+000,1.473999e-004
2.838000e+000,1.661682e-004
2.839000e+000,5.493164e-006
2.840000e+000,-1.495361e-004
2.841000e+000,-1.861572e-004
2.842000e+000,-1.087952e-004
2.843000e+000,-1.043701e-004
2.844000e+000,-1.611328e-004
2.845000e+000,-1.460266e-004
2.846000e+000,1.083374e-004
2.847000e+000,3.509521e-004
2.848000e+000,4.562378e-004
2.849000e+000,2.507019e-004
2.850000e+000,1.449585e-004
2.851000e+000,1.132202e-004
2.852000e+000,5.844116e-005
2.853000e+000,-3.692627e-005
2.854000e+000,-2.140808e-004
2.855000e+000,-3.381348e-004
2.856000e+000,-1.725769e-004
2.857000e+000,1.159668e-004
2.858000e+000,2.273560e-004
2.859000e+000,1.922607e-004
2.860000e+000,3.318787e-004
2.861000e+000,2.758789e-004
2.862000e+000,3.076172e-004
2.863000e+000,3.881836e-004
2.864000e+000,3.065491e-004
2.865000e+000,6.195068e-005
2.866000e+000,1.261902e-004
2.867000e+000,2.044678e-004
2.868000e+000,-5.004883e-004
2.869000e+000,-8.781433e-004
2.870000e+000,-1.007690e-003
2.871000e+000,-7.882690e-004
2.872000e+000,-2.519226e-004
2.873000e+000,2.807617e-004
2.874000e+000,6.616211e-004
2.875000e+000,5.348206e-004
2.876000e+000,4.367065e-004
2.877000e+000,3.082275e-004
2.878000e+000,1.000977e-004
2.879000e+000,-1.449585e-004
2.880000e+000,-7.141113e-005
2.881000e+000,3.713989e-004
2.882000e+000,9.811401e-004
2.883000e+000,5.987549e-004
2.884000e+000,-4.476929e-004
2.885000e+000,-7.237244e-004
2.886000e+000,-2.610779e-004
2.887000e+000,3.184509e-004
2.888000e+000,5.549622e-004
2.889000e+000,4.600525e-004
2.890000e+000,1.983643e-004
2.891000e+000,-7.217407e-005
2.892000e+000,-1.382446e-004
2.893000e+000,-1.649475e-004
2.894000e+000,-2.267456e-004
2.895000e+000,-2.937317e-004
2.896000e+000,-3.855896e-004
2.897000e+000,-2.847290e-004
2.898000e+000,-7.492065e-005
2.899000e+000,-1.475525e-004
2.900000e+000,-5.134583e-004
2.901000e+000,-2.824402e-004
2.902000e+000,4.234314e-004
2.903000e+000,9.053040e-004
2.904000e+000,1.038361e-003
2.905000e+000,9.611511e-004
2.906000e+000,4.144287e-004
2.907000e+000,-4.425049e-005
2.908000e+000,-2.439880e-004
2.909000e+000,-3.034973e-004
2.910000e+000,-2.093506e-004
2.911000e+000,-2.000427e-004
2.912000e+000,-2.131653e-004
2.913000e+000,-3.468323e-004
2.914000e+000,-4.354858e-004
2.915000e+000,-5.598450e-004
2.916000e+000,-5.409241e-004
2.917000e+000,-5.172729e-005
2.918000e+000,6.660461e-004
2.919000e+000,1.107330e-003
2.920000e+000,8.895874e-004
2.921000e+000,4.339600e-004
2.922000e+000,1.004028e-004
2.923000e+000,-3.555298e-005
2.924000e+000,8.834839e-005
2.925000e+000,1.144409e-005
2.926000e+000,-2.006531e-004
2.927000e+000,-2.511597e-004
2.928000e+000,-2.017212e-004
2.929000e+000,-8.499146e-005
2.930000e+000,-8.712769e-005
2.931000e+000,-2.098083e-004
2.932000e+000,-1.847839e-004
2.933000e+000,-3.204346e-005
2.934000e+000,-1.037598e-005
2.935000e+000,-1.535034e-004
2.936000e+000,-6.500244e-005
2.937000e+000,1.034546e-004
2.938000e+000,3.993225e-004
2.939000e+000,7.093811e-004
2.940000e+000,5.741882e-004
2.941000e+000,2.095032e-004
2.942000e+000,7.415771e-005
2.943000e+000,3.509521e-006
2.944000e+000,8.026123e-005
2.945000e+000,2.746582e-006
2.946000e+000,1.342773e-005
2.947000e+000,2.272034e-004
2.948000e+000,2.914429e-004
2.949000e+000,5.001831e-004
2.950000e+000,-4.989624e-005
2.951000e+000,-7.595825e-004
2.952000e+000,-8.654785e-004
2.953000e+000,-3.390503e-004
2.954000e+000,-3.370667e-004
2.955000e+000,-3.056335e-004
2.956000e+000,6.439209e-005
2.957000e+000,1.249695e-004
2.958000e+000,2.857971e-004
2.959000e+000,4.975891e-004
2.960000e+000,2.453613e-004
2.961000e+000,-1.742554e-004
2.962000e+000,-2.557373e-004
2.963000e+000,-1.678467e-006
2.964000e+000,5.061340e-004
2.965000e+000,7.031250e-004
2.966000e+000,4.437256e-004
2.967000e+000,1.231384e-004
2.968000e+000,1.068115e-005
2.969000e+000,-2.136230e-005
2.970000e+000,6.561279e-006
2.971000e+000,1.358032e-005
2.972000e+000,-7.080078e-005
2.973000e+000,-3.665161e-004
2.974000e+000,-4.891968e-004
2.975000e+000,-2.401733e-004
2.976000e+000,1.081848e-004
2.977000e+000,3.828430e-004
2.978000e+000,4.458618e-004
2.979000e+000,3.675842e-004
2.980000e+000,2.668762e-004
2.981000e+000,1.208496e-004
2.982000e+000,9.750366e-005
2.983000e+000,-4.150391e-005
2.984000e+000,-1.062012e-004
2.985000e+000,1.525879e-007
2.986000e+000,1.417542e-004
2.987000e+000,8.697510e-005
2.988000e+000,-2.037048e-004
2.989000e+000,-2.540588e-004
2.990000e+000,1.528931e-004
2.991000e+000,3.952026e-005
2.992000e+000,-1.599121e-004
2.993000e+000,-9.994507e-005
2.994000e+000,-1.440430e-004
2.995000e+000,-3.952026e-005
2.996000e+000,1.260376e-004
2.997000e+000,1.666260e-004
2.998000e+000,2.134705e-004
2.999000e+000,4.296875e-004
3.000000e+000,4.776001e-004
3.001000e+000,1.432800e-004
3.002000e+000,-5.555725e-004
3.003000e+000,-7.075500e-004
3.004000e+000,-1.298523e-004
3.005000e+000,1.651001e-004
3.006000e+000,3.604126e-004
3.007000e+000,3.477478e-004
3.008000e+000,1.084900e-004
3.009000e+000,3.448486e-005
3.010000e+000,9.750366e-005
3.011000e+000,1.364136e-004
3.012000e+000,1.333618e-004
3.013000e+000,-4.119873e-006
3.014000e+000,-2.893066e-004
3.015000e+000,-3.607178e-004
3.016000e+000,3.692627e-005
3.017000e+000,5.622864e-004
3.018000e+000,6.129456e-004
3.019000e+000,1.591492e-004
3.020000e+000,-1.628113e-004
3.021000e+000,-1.512146e-004
3.022000e+000,-1.631165e-004
3.023000e+000,-1.820374e-004
3.024000e+000,-1.066589e-004
3.025000e+000,-4.821777e-005
3.026000e+000,-3.540039e-005
3.027000e+000,-3.375244e-004
3.028000e+000,-2.169800e-004
3.029000e+000,1.483154e-004
3.030000e+000,6.416321e-004
3.031000e+000,6.729126e-004
3.032000e+000,5.128479e-004
3.033000e+000,1.406860e-004
3.034000e+000,-1.255798e-004
3.035000e+000,-1.354980e-004
3.036000e+000,9.002686e-006
3.037000e+000,2.015686e-004
3.038000e+000,2.604675e-004
3.039000e+000,1.101685e-004
3.040000e+000,1.007080e-004
3.041000e+000,1.037598e-005
3.042000e+000,-8.407593e-005
3.043000e+000,5.798340e-006
3.044000e+000,-9.094238e-005
3.045000e+000,-2.256775e-004
3.046000e+000,-2.117920e-004
3.047000e+000,-3.952026e-004
3.048000e+000,-5.876160e-004
3.049000e+000,-4.176331e-004
3.050000e+000,-3.894043e-004
3.051000e+000,6.088257e-005
3.052000e+000,5.215454e-004
3.053000e+000,4.292297e-004
3.054000e+000,2.604675e-004
3.055000e+000,4.286194e-004
3.056000e+000,4.957581e-004
3.057000e+000,6.341553e-004
3.058000e+000,4.891968e-004
3.059000e+000,2.809143e-004
3.060000e+000,1.689148e-004
3.061000e+000,-4.409790e-005
3.062000e+000,-2.767944e-004
3.063000e+000,-3.001404e-004
3.064000e+000,-3.817749e-004
3.065000e+000,-6.449890e-004
3.066000e+000,-5.583191e-004
3.067000e+000,1.235962e-005
3.068000e+000,5.749512e-004
3.069000e+000,7.424927e-004
3.070000e+000,7.409668e-004
3.071000e+000,3.720093e-004
3.072000e+000,6.713867e-005
3.073000e+000,-1.213074e-004
3.074000e+000,-1.222229e-004
3.075000e+000,-1.484680e-004
3.076000e+000,-3.323364e-004
3.077000e+000,-3.388977e-004
3.078000e+000,-2.507019e-004
3.079000e+000,-1.490784e-004
3.080000e+000,3.753662e-005
3.081000e+000,-1.408386e-004
3.082000e+000,-3.529358e-004
3.083000e+000,-8.911133e-005
3.084000e+000,1.968384e-005
3.085000e+000,-3.790283e-004
3.086000e+000,-2.777100e-004
3.087000e+000,2.252197e-004
3.088000e+000,6.463623e-004
3.089000e+000,1.109924e-003
3.090000e+000,1.165466e-003
3.091000e+000,6.320190e-004
3.092000e+000,2.687073e-004
3.093000e+000,1.281738e-005
3.094000e+000,-2.243042e-005
3.095000e+000,-1.510620e-005
3.096000e+000,-2.014160e-005
3.097000e+000,-1.153564e-004
3.098000e+000,-1.382446e-004
3.099000e+000,-1.843262e-004
3.100000e+000,-2.476501e-004
3.101000e+000,-3.514099e-004
3.102000e+000,-4.136658e-004
3.103000e+000,-4.508972e-004
3.104000e+000,-3.204346e-004
3.105000e+000,-2.258301e-005
3.106000e+000,2.067566e-004
3.107000e+000,4.267883e-004
3.108000e+000,2.233887e-004
3.109000e+000,-6.896973e-005
3.110000e+000,-7.949829e-005
3.111000e+000,6.454468e-005
3.112000e+000,2.973938e-004
3.113000e+000,4.876709e-004
3.114000e+000,3.222656e-004
3.115000e+000,1.432800e-004
3.116000e+000,8.071899e-005
3.117000e+000,-3.097534e-005
3.118000e+000,-1.745605e-004
3.119000e+000,-2.540588e-004
3.120000e+000,-1.890564e-004
3.121000e+000,-1.162720e-004
3.122000e+000,1.051331e-004
3.123000e+000,3.179932e-004
3.124000e+000,3.521729e-004
3.125000e+000,2.857971e-004
3.126000e+000,8.193970e-005
3.127000e+000,-1.275635e-004
3.128000e+000,-2.597046e-004
3.129000e+000,-4.039001e-004
3.130000e+000,-3.408813e-004
3.131000e+000,-3.479004e-005
3.132000e+000,3.681946e-004
3.133000e+000,6.748962e-004
3.134000e+000,9.127808e-004
3.135000e+000,7.185364e-004
3.136000e+000,3.836060e-004
3.137000e+000,2.609253e-005
3.138000e+000,-1.608276e-004
3.139000e+000,-2.656555e-004
3.140000e+000,-3.260803e-004
3.141000e+000,-4.524231e-004
3.142000e+000,-4.208374e-004
3.143000e+000,-2.722168e-004
3.144000e+000,-1.284790e-004
3.145000e+000,-5.783081e-005
3.146000e+000,-6.912231e-005
3.147000e+000,-1.092529e-004
3.148000e+000,-9.277344e-005
3.149000e+000,-4.577637e-006
3.150000e+000,9.094238e-005
3.151000e+000,2.603149e-004
3.152000e+000,2.279663e-004
3.153000e+000,3.692627e-005
3.154000e+000,-3.051758e-005
3.155000e+000,5.737305e-005
3.156000e+000,1.956177e-004
3.157000e+000,3.398132e-004
3.158000e+000,3.376770e-004
3.159000e+000,1.924133e-004
3.160000e+000,6.637573e-005
3.161000e+000,-2.853394e-005
3.162000e+000,-1.161194e-004
3.163000e+000,-2.014160e-005
3.164000e+000,9.521484e-005
3.165000e+000,1.339722e-004
3.166000e+000,1.863098e-004
3.167000e+000,3.016663e-004
3.168000e+000,2.511597e-004
3.169000e+000,1.724243e-004
3.170000e+000,-1.678467e-006
3.171000e+000,-4.745483e-005
3.172000e+000,-9.536743e-005
3.173000e+000,-1.943970e-004
3.174000e+000,-3.161621e-004
3.175000e+000,-4.171753e-004
3.176000e+000,-2.632141e-004
3.177000e+000,1.794434e-004
3.178000e+000,2.540588e-004
3.179000e+000,3.128052e-004
3.180000e+000,2.447510e-004
3.181000e+000,2.029419e-004
3.182000e+000,2.209473e-004
3.183000e+000,2.153015e-004
3.184000e+000,1.893616e-004
3.185000e+000,7.675171e-005
3.186000e+000,-4.943848e-005
3.187000e+000,-9.460449e-005
3.188000e+000,-1.298523e-004
3.189000e+000,-8.468628e-005
3.190000e+000,-5.004883e-005
3.191000e+000,-4.028320e-005
3.192000e+000,-2.441406e-006
3.193000e+000,-2.578735e-005
3.194000e+000,-4.455566e-005
3.195000e+000,-2.700806e-005
3.196000e+000,-1.785278e-005
3.197000e+000,-1.205444e-005
3.198000e+000,3.356934e-006
3.199000e+000,2.899170e-005
3.200000e+000,5.310059e-005
3.201000e+000,7.125854e-005
3.202000e+000,7.064819e-005
3.203000e+000,8.148193e-005
3.204000e+000,9.826660e-005
3.205000e+000,1.063538e-004
3.206000e+000,1.011658e-004
3.207000e+000,9.597778e-005
3.208000e+000,9.811401e-005
3.209000e+000,9.414673e-005
3.210000e+000,9.201050e-005
3.211000e+000,9.216309e-005
3.212000e+000,9.292603e-005
3.213000e+000,7.995605e-005
3.214000e+000,7.019043e-005
3.215000e+000,6.835938e-005
3.216000e+000,6.484985e-005
3.217000e+000,6.500244e-005
3.218000e+000,5.264282e-005
3.219000e+000,3.936768e-005
3.220000e+000,3.738403e-005
3.221000e+000,4.196167e-005
3.222000e+000,4.211426e-005
3.223000e+000,3.952026e-005
3.224000e+000,2.288818e-005
3.225000e+000,1.068115e-005
3.226000e+000,1.159668e-005
3.227000e+000,6.713867e-006
3.228000e+000,-6.866455e-006
3.229000e+000,-1.693726e-005
3.230000e+000,-8.850098e-006
3.231000e+000,1.358032e-005
3.232000e+000,1.235962e-005
3.233000e+000,2.197266e-005
3.234000e+000,5.950928e-005
3.235000e+000,6.301880e-005
3.236000e+000,5.706787e-005
3.237000e+000,5.157471e-005
3.238000e+000,4.379272e-005
3.239000e+000,7.629395e-005
3.240000e+000,6.652832e-005
3.241000e+000,8.010864e-005
3.242000e+000,5.569458e-005
3.243000e+000,4.058838e-005
3.244000e+000,4.943848e-005
3.245000e+000,5.065918e-005
3.246000e+000,3.738403e-005
3.247000e+000,3.952026e-005
3.248000e+000,2.593994e-005
3.249000e+000,3.479004e-005
3.250000e+000,3.860474e-005
3.251000e+000,-1.983643e-006
3.252000e+000,-1.693726e-005
3.253000e+000,1.907349e-005
3.254000e+000,6.378174e-005
3.255000e+000,9.704590e-005
3.256000e+000,1.062012e-004
3.257000e+000,1.135254e-004
3.258000e+000,1.008606e-004
3.259000e+000,6.561279e-005
3.260000e+000,3.143311e-005
3.261000e+000,2.014160e-005
3.262000e+000,1.525879e-007
3.263000e+000,1.525879e-006
3.264000e+000,1.632690e-005
3.265000e+000,2.227783e-005
3.266000e+000,3.784180e-005
3.267000e+000,5.737305e-005
3.268000e+000,4.760742e-005
3.269000e+000,3.860474e-005
3.270000e+000,4.791260e-005
3.271000e+000,4.882813e-005
3.272000e+000,4.959106e-005
3.273000e+000,4.364014e-005
3.274000e+000,4.074097e-005
3.275000e+000,4.104614e-005
3.276000e+000,4.211426e-005
3.277000e+000,4.165649e-005
3.278000e+000,3.448486e-005
3.279000e+000,3.463745e-005
3.280000e+000,3.967285e-005
3.281000e+000,3.799438e-005
3.282000e+000,3.967285e-005
3.283000e+000,5.172729e-005
3.284000e+000,5.554199e-005
3.285000e+000,5.645752e-005
3.286000e+000,6.011963e-005
3.287000e+000,5.844116e-005
3.288000e+000,5.035400e-005
3.289000e+000,4.760742e-005
3.290000e+000,4.547119e-005
3.291000e+000,4.531860e-005
3.292000e+000,4.302979e-005
3.293000e+000,4.013062e-005
3.294000e+000,4.089355e-005
3.295000e+000,4.577637e-005
3.296000e+000,4.806519e-005
3.297000e+000,4.302979e-005
3.298000e+000,4.196167e-005
3.299000e+000,4.714966e-005
3.300000e+000,3.875732e-005
3.301000e+000,2.761841e-005
3.302000e+000,2.792358e-005
3.303000e+000,3.936768e-005
3.304000e+000,4.791260e-005
3.305000e+000,4.989624e-005
3.306000e+000,5.325317e-005
3.307000e+000,4.592896e-005
3.308000e+000,4.791260e-005
3.309000e+000,4.699707e-005
3.310000e+000,3.723145e-005
3.311000e+000,3.707886e-005
3.312000e+000,3.570557e-005
3.313000e+000,4.348755e-005
3.314000e+000,4.211426e-005
3.315000e+000,4.089355e-005
3.316000e+000,4.562378e-005
3.317000e+000,5.889893e-005
3.318000e+000,6.164551e-005
3.319000e+000,4.959106e-005
3.320000e+000,4.089355e-005
3.321000e+000,3.784180e-005
3.322000e+000,3.692627e-005
3.323000e+000,4.730225e-005
3.324000e+000,5.538940e-005
3.325000e+000,5.569458e-005
3.326000e+000,5.050659e-005
3.327000e+000,4.302979e-005
3.328000e+000,1.922607e-005
3.329000e+000,3.662109e-006
3.330000e+000,8.087158e-006
3.331000e+000,1.831055e-006
3.332000e+000,7.629395e-006
3.333000e+000,4.989624e-005
3.334000e+000,9.521484e-005
3.335000e+000,1.101685e-004
3.336000e+000,8.789062e-005
3.337000e+000,5.508423e-005
3.338000e+000,4.959106e-005
3.339000e+000,4.882813e-005
3.340000e+000,2.899170e-005
3.341000e+000,3.372192e-005
3.342000e+000,4.562378e-005
3.343000e+000,4.272461e-005
3.344000e+000,4.760742e-005
3.345000e+000,4.684448e-005
3.346000e+000,3.875732e-005
3.347000e+000,2.548218e-005
3.348000e+000,1.998901e-005
3.349000e+000,3.417969e-005
3.350000e+000,3.875732e-005
3.351000e+000,2.960205e-005
3.352000e+000,2.685547e-005
3.353000e+000,2.609253e-005
3.354000e+000,3.311157e-005
3.355000e+000,4.592896e-005
3.356000e+000,5.935669e-005
3.357000e+000,7.568359e-005
3.358000e+000,8.041382e-005
3.359000e+000,7.171631e-005
3.360000e+000,4.425049e-005
3.361000e+000,2.944946e-005
3.362000e+000,2.548218e-005
3.363000e+000,3.540039e-005
3.364000e+000,5.584717e-005
3.365000e+000,6.011963e-005
3.366000e+000,5.844116e-005
3.367000e+000,5.615234e-005
3.368000e+000,5.096436e-005
3.369000e+000,4.699707e-005
3.370000e+000,3.845215e-005
3.371000e+000,3.402710e-005
3.372000e+000,3.067017e-005
3.373000e+000,3.311157e-005
3.374000e+000,3.295898e-005
3.375000e+000,3.692627e-005
3.376000e+000,4.455566e-005
3.377000e+000,4.516602e-005
3.378000e+000,4.394531e-005
3.379000e+000,4.318237e-005
3.380000e+000,4.211426e-005
3.381000e+000,3.463745e-005
3.382000e+000,3.585815e-005
3.383000e+000,4.104614e-005
3.384000e+000,4.455566e-005
3.385000e+000,4.348755e-005
3.386000e+000,4.425049e-005
3.387000e+000,4.074097e-005
3.388000e+000,4.455566e-005
3.389000e+000,3.601074e-005
3.390000e+000,4.486084e-005
3.391000e+000,4.302979e-005
3.392000e+000,3.540039e-005
3.393000e+000,4.867554e-005
3.394000e+000,5.157471e-005
3.395000e+000,4.638672e-005
3.396000e+000,4.684448e-005
3.397000e+000,4.196167e-005
3.398000e+000,4.287720e-005
3.399000e+000,4.501343e-005
3.400000e+000,4.791260e-005
3.401000e+000,4.577637e-005
3.402000e+000,4.501343e-005
3.403000e+000,5.050659e-005
3.404000e+000,5.416870e-005
3.405000e+000,5.752563e-005
3.406000e+000,5.630493e-005
3.407000e+000,5.691528e-005
3.408000e+000,6.057739e-005
3.409000e+000,5.554199e-005
3.410000e+000,4.562378e-005
3.411000e+000,2.807617e-005
3.412000e+000,1.480103e-005
3.413000e+000,1.144409e-005
3.414000e+000,1.693726e-005
3.415000e+000,2.288818e-005
3.416000e+000,3.234863e-005
3.417000e+000,3.936768e-005
3.418000e+000,4.470825e-005
3.419000e+000,5.249023e-005
3.420000e+000,6.591797e-005
3.421000e+000,5.935669e-005
3.422000e+000,5.111694e-005
3.423000e+000,4.730225e-005
3.424000e+000,4.226685e-005
3.425000e+000,4.318237e-005
3.426000e+000,4.730225e-005
3.427000e+000,5.172729e-005
3.428000e+000,4.455566e-005
3.429000e+000,4.104614e-005
3.430000e+000,4.760742e-005
3.431000e+000,4.791260e-005
3.432000e+000,4.943848e-005
3.433000e+000,5.050659e-005
3.434000e+000,4.074097e-005
3.435000e+000,3.158569e-005
3.436000e+000,4.089355e-005
3.437000e+000,4.440308e-005
3.438000e+000,3.738403e-005
3.439000e+000,3.067017e-005
3.440000e+000,3.372192e-005
3.441000e+000,3.723145e-005
3.442000e+000,4.318237e-005
3.443000e+000,4.776001e-005
3.444000e+000,4.592896e-005
3.445000e+000,4.302979e-005
3.446000e+000,5.493164e-005
3.447000e+000,6.393433e-005
3.448000e+000,6.958008e-005
3.449000e+000,5.783081e-005
3.450000e+000,5.111694e-005
3.451000e+000,4.592896e-005
3.452000e+000,4.196167e-005
3.453000e+000,3.051758e-005
3.454000e+000,2.365112e-005
3.455000e+000,2.929687e-005
3.456000e+000,3.189087e-005
3.457000e+000,3.372192e-005
3.458000e+000,3.936768e-005
3.459000e+000,4.333496e-005
3.460000e+000,4.837036e-005
3.461000e+000,4.867554e-005
3.462000e+000,5.279541e-005
3.463000e+000,5.050659e-005
3.464000e+000,5.294800e-005
3.465000e+000,5.554199e-005
3.466000e+000,4.257202e-005
3.467000e+000,3.158569e-005
3.468000e+000,3.448486e-005
3.469000e+000,3.601074e-005
3.470000e+000,3.707886e-005
3.471000e+000,4.013062e-005
3.472000e+000,3.921509e-005
3.473000e+000,3.387451e-005
3.474000e+000,3.417969e-005
3.475000e+000,3.860474e-005
3.476000e+000,4.699707e-005
3.477000e+000,5.264282e-005
3.478000e+000,4.943848e-005
3.479000e+000,4.806519e-005
3.480000e+000,6.378174e-005
3.481000e+000,6.301880e-005
3.482000e+000,4.913330e-005
3.483000e+000,4.608154e-005
3.484000e+000,3.433228e-005
3.485000e+000,2.288818e-005
3.486000e+000,2.746582e-005
3.487000e+000,3.707886e-005
3.488000e+000,5.554199e-005
3.489000e+000,6.423950e-005
3.490000e+000,6.484985e-005
3.491000e+000,5.935669e-005
3.492000e+000,5.279541e-005
3.493000e+000,3.326416e-005
3.494000e+000,2.670288e-005
3.495000e+000,2.288818e-005
3.496000e+000,2.441406e-005
3.497000e+000,3.601074e-005
3.498000e+000,4.562378e-005
3.499000e+000,4.913330e-005
3.500000e+000,4.425049e-005
3.501000e+000,4.348755e-005
3.502000e+000,4.486084e-005
3.503000e+000,4.226685e-005
3.504000e+000,3.555298e-005
3.505000e+000,4.531860e-005
3.506000e+000,4.852295e-005
3.507000e+000,4.959106e-005
3.508000e+000,4.806519e-005
3.509000e+000,4.577637e-005
3.510000e+000,4.364014e-005
3.511000e+000,5.111694e-005
3.512000e+000,5.966187e-005
3.513000e+000,6.317139e-005
3.514000e+000,6.149292e-005
3.515000e+000,5.111694e-005
3.516000e+000,4.348755e-005
3.517000e+000,4.516602e-005
3.518000e+000,4.455566e-005
3.519000e+000,3.845215e-005
3.520000e+000,3.524780e-005
3.521000e+000,2.929687e-005
3.522000e+000,4.028320e-005
3.523000e+000,3.829956e-005
3.524000e+000,3.707886e-005
3.525000e+000,3.677368e-005
3.526000e+000,3.326416e-005
3.527000e+000,3.280640e-005
3.528000e+000,3.005981e-005
3.529000e+000,3.540039e-005
3.530000e+000,4.135132e-005
3.531000e+000,4.165649e-005
3.532000e+000,4.379272e-005
3.533000e+000,4.379272e-005
3.534000e+000,4.745483e-005
3.535000e+000,4.653931e-005
3.536000e+000,4.745483e-005
3.537000e+000,5.004883e-005
3.538000e+000,4.821777e-005
3.539000e+000,5.020142e-005
3.540000e+000,4.516602e-005
3.541000e+000,4.653931e-005
3.542000e+000,4.638672e-005
3.543000e+000,4.425049e-005
3.544000e+000,4.882813e-005
3.545000e+000,5.828857e-005
3.546000e+000,5.401611e-005
3.547000e+000,4.470825e-005
3.548000e+000,4.379272e-005
3.549000e+000,3.570557e-005
3.550000e+000,3.341675e-005
3.551000e+000,2.700806e-005
3.552000e+000,4.531860e-005
3.553000e+000,8.666992e-005
3.554000e+000,6.118774e-005
3.555000e+000,1.724243e-005
3.556000e+000,1.693726e-005
3.557000e+000,2.944946e-005
3.558000e+000,4.043579e-005
3.559000e+000,5.447388e-005
3.560000e+000,5.859375e-005
3.561000e+000,5.905151e-005
3.562000e+000,4.974365e-005
3.563000e+000,2.716064e-005
3.564000e+000,3.295898e-005
3.565000e+000,4.455566e-005
3.566000e+000,4.562378e-005
3.567000e+000,4.959106e-005
3.568000e+000,4.760742e-005
3.569000e+000,3.753662e-005
3.570000e+000,2.700806e-005
3.571000e+000,2.288818e-005
3.572000e+000,2.731323e-005
3.573000e+000,3.448486e-005
3.574000e+000,4.379272e-005
3.575000e+000,4.531860e-005
3.576000e+000,4.623413e-005
3.577000e+000,4.302979e-005
3.578000e+000,3.112793e-005
3.579000e+000,2.136230e-005
3.580000e+000,2.441406e-005
3.581000e+000,3.540039e-005
3.582000e+000,6.362915e-005
3.583000e+000,8.621216e-005
3.584000e+000,1.005554e-004
3.585000e+000,1.126099e-004
3.586000e+000,1.164246e-004
3.587000e+000,9.826660e-005
3.588000e+000,6.744385e-005
3.589000e+000,4.455566e-005
3.590000e+000,2.227783e-005
3.591000e+000,1.358032e-005
3.592000e+000,7.629395e-007
3.593000e+000,-6.408691e-006
3.594000e+000,-2.593994e-006
3.595000e+000,9.155273e-007
3.596000e+000,1.098633e-005
3.597000e+000,1.663208e-005
3.598000e+000,1.739502e-005
3.599000e+000,2.410889e-005
3.600000e+000,3.021240e-005
3.601000e+000,4.455566e-005
3.602000e+000,5.416870e-005
3.603000e+000,5.477905e-005
3.604000e+000,7.461548e-005
3.605000e+000,8.026123e-005
3.606000e+000,7.049561e-005
3.607000e+000,5.813599e-005
3.608000e+000,3.845215e-005
3.609000e+000,2.700806e-005
3.610000e+000,1.342773e-005
3.611000e+000,1.632690e-005
3.612000e+000,3.692627e-005
3.613000e+000,5.798340e-005
3.614000e+000,6.225586e-005
3.615000e+000,5.874634e-005
3.616000e+000,6.072998e-005
3.617000e+000,6.713867e-005
3.618000e+000,6.790161e-005
3.619000e+000,5.935669e-005
3.620000e+000,4.898071e-005
3.621000e+000,4.028320e-005
3.622000e+000,4.058838e-005
3.623000e+000,4.089355e-005
3.624000e+000,4.592896e-005
3.625000e+000,4.974365e-005
3.626000e+000,5.035400e-005
3.627000e+000,4.867554e-005
3.628000e+000,4.135132e-005
3.629000e+000,3.753662e-005
3.630000e+000,3.738403e-005
3.631000e+000,2.593994e-005
3.632000e+000,3.662109e-005
3.633000e+000,4.684448e-005
3.634000e+000,4.745483e-005
3.635000e+000,4.013062e-005
3.636000e+000,3.265381e-005
3.637000e+000,3.204346e-005
3.638000e+000,3.494263e-005
3.639000e+000,3.784180e-005
3.640000e+000,4.226685e-005
3.641000e+000,4.531860e-005
3.642000e+000,4.119873e-005
3.643000e+000,3.875732e-005
3.644000e+000,4.516602e-005
3.645000e+000,4.577637e-005
3.646000e+000,4.562378e-005
3.647000e+000,4.516602e-005
3.648000e+000,4.516602e-005
3.649000e+000,4.180908e-005
3.650000e+000,4.272461e-005
3.651000e+000,4.318237e-005
3.652000e+000,4.333496e-005
3.653000e+000,4.348755e-005
3.654000e+000,4.455566e-005
3.655000e+000,4.119873e-005
3.656000e+000,4.394531e-005
3.657000e+000,5.020142e-005
3.658000e+000,4.959106e-005
3.659000e+000,5.401611e-005
3.660000e+000,5.859375e-005
3.661000e+000,5.340576e-005
3.662000e+000,4.425049e-005
3.663000e+000,4.272461e-005
3.664000e+000,3.875732e-005
3.665000e+000,3.112793e-005
3.666000e+000,3.250122e-005
3.667000e+000,3.204346e-005
3.668000e+000,3.860474e-005
3.669000e+000,4.440308e-005
3.670000e+000,3.509521e-005
3.671000e+000,3.921509e-005
3.672000e+000,4.257202e-005
3.673000e+000,4.776001e-005
3.674000e+000,5.218506e-005
3.675000e+000,5.126953e-005
3.676000e+000,4.867554e-005
3.677000e+000,4.959106e-005
3.678000e+000,5.096436e-005
3.679000e+000,4.776001e-005
3.680000e+000,4.486084e-005
3.681000e+000,4.867554e-005
3.682000e+000,5.065918e-005
3.683000e+000,5.004883e-005
3.684000e+000,4.913330e-005
3.685000e+000,4.226685e-005
3.686000e+000,3.189087e-005
3.687000e+000,3.875732e-005
3.688000e+000,4.501343e-005
3.689000e+000,4.547119e-005
3.690000e+000,5.584717e-005
3.691000e+000,5.447388e-005
3.692000e+000,5.264282e-005
3.693000e+000,4.486084e-005
3.694000e+000,4.348755e-005
3.695000e+000,3.341675e-005
3.696000e+000,1.144409e-005
3.697000e+000,9.307861e-006
3.698000e+000,5.950928e-006
3.699000e+000,7.934570e-006
3.700000e+000,2.593994e-005
3.701000e+000,4.272461e-005
3.702000e+000,5.966187e-005
3.703000e+000,6.332397e-005
3.704000e+000,6.256104e-005
3.705000e+000,5.935669e-005
3.706000e+000,6.072998e-005
3.707000e+000,6.134033e-005
3.708000e+000,6.210327e-005
3.709000e+000,5.554199e-005
3.710000e+000,4.882813e-005
3.711000e+000,5.508423e-005
3.712000e+000,4.608154e-005
3.713000e+000,3.982544e-005
3.714000e+000,3.540039e-005
3.715000e+000,4.302979e-005
3.716000e+000,4.684448e-005
3.717000e+000,5.218506e-005
3.718000e+000,5.615234e-005
3.719000e+000,6.057739e-005
3.720000e+000,5.020142e-005
3.721000e+000,4.348755e-005
3.722000e+000,3.570557e-005
3.723000e+000,3.326416e-005
3.724000e+000,3.417969e-005
3.725000e+000,2.166748e-005
3.726000e+000,2.349854e-005
3.727000e+000,3.341675e-005
3.728000e+000,3.540039e-005
3.729000e+000,4.013062e-005
3.730000e+000,2.944946e-005
3.731000e+000,3.067017e-005
3.732000e+000,3.784180e-005
3.733000e+000,4.074097e-005
3.734000e+000,5.050659e-005
3.735000e+000,5.355835e-005
3.736000e+000,5.340576e-005
3.737000e+000,5.020142e-005
3.738000e+000,4.470825e-005
3.739000e+000,4.028320e-005
3.740000e+000,4.272461e-005
3.741000e+000,5.599976e-005
3.742000e+000,6.057739e-005
3.743000e+000,5.828857e-005
3.744000e+000,5.966187e-005
3.745000e+000,5.310059e-005
3.746000e+000,5.538940e-005
3.747000e+000,4.745483e-005
3.748000e+000,2.929687e-005
3.749000e+000,2.883911e-005
3.750000e+000,4.455566e-005
3.751000e+000,4.196167e-005
3.752000e+000,3.677368e-005
3.753000e+000,3.982544e-005
3.754000e+000,3.921509e-005
3.755000e+000,3.845215e-005
3.756000e+000,3.662109e-005
3.757000e+000,3.616333e-005
3.758000e+000,4.028320e-005
3.759000e+000,4.531860e-005
3.760000e+000,5.020142e-005
3.761000e+000,5.401611e-005
3.762000e+000,4.806519e-005
3.763000e+000,3.601074e-005
3.764000e+000,3.860474e-005
3.765000e+000,4.196167e-005
3.766000e+000,4.302979e-005
3.767000e+000,4.302979e-005
3.768000e+000,5.126953e-005
3.769000e+000,4.959106e-005
3.770000e+000,4.241943e-005
3.771000e+000,3.906250e-005
3.772000e+000,3.677368e-005
3.773000e+000,3.265381e-005
3.774000e+000,3.845215e-005
3.775000e+000,4.776001e-005
3.776000e+000,4.028320e-005
3.777000e+000,4.074097e-005
3.778000e+000,4.577637e-005
3.779000e+000,4.638672e-005
3.780000e+000,5.676270e-005
3.781000e+000,6.011963e-005
3.782000e+000,4.776001e-005
3.783000e+000,3.967285e-005
3.784000e+000,4.806519e-005
3.785000e+000,5.126953e-005
3.786000e+000,5.493164e-005
3.787000e+000,5.187988e-005
3.788000e+000,4.165649e-005
3.789000e+000,3.234863e-005
3.790000e+000,3.936768e-005
3.791000e+000,4.028320e-005
3.792000e+000,4.425049e-005
3.793000e+000,4.745483e-005
3.794000e+000,5.279541e-005
3.795000e+000,4.943848e-005
3.796000e+000,4.516602e-005
3.797000e+000,3.707886e-005
3.798000e+000,3.814697e-005
3.799000e+000,4.104614e-005
3.800000e+000,3.494263e-005
3.801000e+000,3.463745e-005
3.802000e+000,3.662109e-005
3.803000e+000,3.738403e-005
3.804000e+000,4.119873e-005
3.805000e+000,4.959106e-005
3.806000e+000,5.142212e-005
3.807000e+000,4.684448e-005
3.808000e+000,3.921509e-005
3.809000e+000,3.463745e-005
3.810000e+000,3.326416e-005
3.811000e+000,3.768921e-005
3.812000e+000,4.501343e-005
3.813000e+000,5.004883e-005
3.814000e+000,4.745483e-005
3.815000e+000,4.592896e-005
3.816000e+000,4.959106e-005
3.817000e+000,4.806519e-005
3.818000e+000,4.745483e-005
3.819000e+000,4.882813e-005
3.820000e+000,3.494263e-005
3.821000e+000,3.082275e-005
3.822000e+000,4.699707e-005
3.823000e+000,5.523682e-005
3.824000e+000,5.844116e-005
3.825000e+000,5.371094e-005
3.826000e+000,6.973267e-005
3.827000e+000,5.538940e-005
3.828000e+000,2.807617e-005
3.829000e+000,4.089355e-005
3.830000e+000,4.348755e-005
3.831000e+000,2.914429e-005
3.832000e+000,3.692627e-005
3.833000e+000,5.004883e-005
3.834000e+000,4.425049e-005
3.835000e+000,4.592896e-005
3.836000e+000,3.387451e-005
3.837000e+000,2.944946e-005
3.838000e+000,3.036499e-005
3.839000e+000,2.670288e-005
3.840000e+000,2.624512e-005
3.841000e+000,3.067017e-005
3.842000e+000,3.372192e-005
3.843000e+000,4.562378e-005
3.844000e+000,5.508423e-005
3.845000e+000,3.936768e-005
3.846000e+000,3.829956e-005
3.847000e+000,4.989624e-005
3.848000e+000,5.493164e-005
3.849000e+000,5.310059e-005
3.850000e+000,5.905151e-005
3.851000e+000,5.676270e-005
3.852000e+000,5.126953e-005
3.853000e+000,4.745483e-005
3.854000e+000,4.684448e-005
3.855000e+000,4.608154e-005
3.856000e+000,5.279541e-005
3.857000e+000,5.569458e-005
3.858000e+000,4.943848e-005
3.859000e+000,4.730225e-005
3.860000e+000,4.959106e-005
3.861000e+000,5.798340e-005
3.862000e+000,5.050659e-005
3.863000e+000,4.211426e-005
3.864000e+000,3.189087e-005
3.865000e+000,2.990723e-005
3.866000e+000,3.463745e-005
3.867000e+000,2.822876e-005
3.868000e+000,3.265381e-005
3.869000e+000,3.494263e-005
3.870000e+000,3.784180e-005
3.871000e+000,4.608154e-005
3.872000e+000,5.187988e-005
3.873000e+000,5.081177e-005
3.874000e+000,4.394531e-005
3.875000e+000,3.860474e-005
3.876000e+000,3.814697e-005
3.877000e+000,3.845215e-005
3.878000e+000,4.272461e-005
3.879000e+000,3.799438e-005
3.880000e+000,4.562378e-005
3.881000e+000,4.394531e-005
3.882000e+000,4.241943e-005
3.883000e+000,4.394531e-005
3.884000e+000,5.386353e-005
3.885000e+000,4.776001e-005
3.886000e+000,4.348755e-005
3.887000e+000,4.348755e-005
3.888000e+000,4.653931e-005
3.889000e+000,4.653931e-005
3.890000e+000,3.875732e-005
3.891000e+000,4.013062e-005
3.892000e+000,4.211426e-005
3.893000e+000,4.653931e-005
3.894000e+000,3.829956e-005
3.895000e+000,4.638672e-005
3.896000e+000,4.714966e-005
3.897000e+000,4.028320e-005
3.898000e+000,5.432129e-005
3.899000e+000,5.569458e-005
3.900000e+000,3.387451e-005
3.901000e+000,3.906250e-005
3.902000e+000,4.501343e-005
3.903000e+000,3.234863e-005
3.904000e+000,3.829956e-005
3.905000e+000,4.074097e-005
3.906000e+000,3.799438e-005
3.907000e+000,4.791260e-005
3.908000e+000,5.035400e-005
3.909000e+000,4.272461e-005
3.910000e+000,3.860474e-005
3.911000e+000,4.882813e-005
3.912000e+000,5.432129e-005
3.913000e+000,5.844116e-005
3.914000e+000,4.089355e-005
3.915000e+000,2.944946e-005
3.916000e+000,3.265381e-005
3.917000e+000,3.311157e-005
3.918000e+000,4.425049e-005
3.919000e+000,5.126953e-005
3.920000e+000,4.791260e-005
3.921000e+000,4.562378e-005
3.922000e+000,4.989624e-005
3.923000e+000,5.050659e-005
3.924000e+000,5.126953e-005
3.925000e+000,5.126953e-005
3.926000e+000,5.477905e-005
3.927000e+000,5.569458e-005
3.928000e+000,5.218506e-005
3.929000e+000,5.157471e-005
3.930000e+000,5.020142e-005
3.931000e+000,4.821777e-005
3.932000e+000,4.501343e-005
3.933000e+000,4.562378e-005
3.934000e+000,3.677368e-005
3.935000e+000,3.051758e-005
3.936000e+000,2.197266e-005
3.937000e+000,2.105713e-005
3.938000e+000,2.700806e-005
3.939000e+000,3.555298e-005
3.940000e+000,4.745483e-005
3.941000e+000,4.394531e-005
3.942000e+000,3.875732e-005
3.943000e+000,3.463745e-005
3.944000e+000,3.448486e-005
3.945000e+000,2.792358e-005
3.946000e+000,3.662109e-005
3.947000e+000,4.821777e-005
3.948000e+000,5.264282e-005
3.949000e+000,4.821777e-005
3.950000e+000,5.477905e-005
3.951000e+000,6.072998e-005
3.952000e+000,6.210327e-005
3.953000e+000,5.416870e-005
3.954000e+000,5.905151e-005
3.955000e+000,6.057739e-005
3.956000e+000,4.211426e-005
3.957000e+000,3.524780e-005
3.958000e+000,3.768921e-005
3.959000e+000,4.104614e-005
3.960000e+000,4.455566e-005
3.961000e+000,4.623413e-005
3.962000e+000,4.806519e-005
3.963000e+000,4.714966e-005
3.964000e+000,3.311157e-005
3.965000e+000,3.692627e-005
3.966000e+000,4.241943e-005
3.967000e+000,3.601074e-005
3.968000e+000,3.448486e-005
3.969000e+000,3.692627e-005
3.970000e+000,3.051758e-005
3.971000e+000,3.738403e-005
3.972000e+000,5.050659e-005
3.973000e+000,3.768921e-005
3.974000e+000,2.563477e-005
3.975000e+000,3.295898e-005
3.976000e+000,4.440308e-005
3.977000e+000,5.783081e-005
3.978000e+000,6.179810e-005
3.979000e+000,5.096436e-005
3.980000e+000,3.936768e-005
3.981000e+000,3.524780e-005
3.982000e+000,4.577637e-005
3.983000e+000,5.264282e-005
3.984000e+000,5.477905e-005
3.985000e+000,5.401611e-005
3.986000e+000,5.096436e-005
3.987000e+000,4.699707e-005
3.988000e+000,4.638672e-005
3.989000e+000,5.355835e-005
3.990000e+000,4.898071e-005
3.991000e+000,4.943848e-005
3.992000e+000,4.013062e-005
3.993000e+000,3.341675e-005
3.994000e+000,3.860474e-005
3.995000e+000,4.745483e-005
3.996000e+000,4.577637e-005
3.997000e+000,4.379272e-005
3.998000e+000,4.913330e-005
3.999000e+000,2.517700e-005
4.000000e+000,5.493164e-006
4.001000e+000,1.831055e-005
4.002000e+000,5.386353e-005
4.003000e+000,1.953125e-005
4.004000e+000,-7.171631e-006
4.005000e+000,4.119873e-006
4.006000e+000,2.792358e-005
4.007000e+000,7.843018e-005
4.008000e+000,1.287842e-004
4.009000e+000,1.554871e-004
4.010000e+000,1.533508e-004
4.011000e+000,1.121521e-004
4.012000e+000,7.247925e-005
4.013000e+000,2.136230e-005
4.014000e+000,4.425049e-006
4.015000e+000,-4.882813e-006
4.016000e+000,-8.087158e-006
4.017000e+000,1.190186e-005
4.018000e+000,-1.266479e-005
4.019000e+000,-6.408691e-005
4.020000e+000,-8.270264e-005
4.021000e+000,-4.562378e-005
4.022000e+000,4.653931e-005
4.023000e+000,1.191711e-004
4.024000e+000,1.783752e-004
4.025000e+000,2.174377e-004
4.026000e+000,2.207947e-004
4.027000e+000,1.426697e-004
4.028000e+000,4.867554e-005
4.029000e+000,1.113892e-005
4.030000e+000,-1.266479e-005
4.031000e+000,-6.164551e-005
4.032000e+000,-6.958008e-005
4.033000e+000,-2.639771e-005
4.034000e+000,5.081177e-005
4.035000e+000,2.426147e-004
4.036000e+000,5.661011e-005
4.037000e+000,-1.609802e-004
4.038000e+000,-2.117920e-004
4.039000e+000,-1.477051e-004
4.040000e+000,-3.936768e-005
4.041000e+000,-1.434326e-005
4.042000e+000,3.814697e-006
4.043000e+000,7.492065e-005
4.044000e+000,1.434326e-004
4.045000e+000,1.478577e-004
4.046000e+000,1.596069e-004
4.047000e+000,2.102661e-004
4.048000e+000,2.001953e-004
4.049000e+000,1.898193e-004
4.050000e+000,1.704407e-004
4.051000e+000,1.115417e-004
4.052000e+000,8.575439e-005
4.053000e+000,5.340576e-005
4.054000e+000,3.265381e-005
4.055000e+000,9.307861e-006
4.056000e+000,1.159668e-004
4.057000e+000,-1.098633e-004
4.058000e+000,-3.555298e-004
4.059000e+000,-3.533936e-004
4.060000e+000,-1.162720e-004
4.061000e+000,1.443481e-004
4.062000e+000,2.522278e-004
4.063000e+000,1.977539e-004
4.064000e+000,1.235962e-004
4.065000e+000,1.145935e-004
4.066000e+000,1.213074e-004
4.067000e+000,1.840210e-004
4.068000e+000,2.270508e-004
4.069000e+000,2.249146e-004
4.070000e+000,2.246094e-004
4.071000e+000,3.623962e-004
4.072000e+000,1.007080e-004
4.073000e+000,-2.056885e-004
4.074000e+000,-2.844238e-004
4.075000e+000,-2.146912e-004
4.076000e+000,-8.850098e-005
4.077000e+000,-6.393433e-005
4.078000e+000,-6.149292e-005
4.079000e+000,-9.384155e-005
4.080000e+000,-1.329041e-004
4.081000e+000,-9.567261e-005
4.082000e+000,-2.548218e-005
4.083000e+000,2.151489e-005
4.084000e+000,3.219604e-005
4.085000e+000,4.089355e-005
4.086000e+000,3.387451e-005
4.087000e+000,2.761841e-005
4.088000e+000,2.505493e-004
4.089000e+000,1.547241e-004
4.090000e+000,-9.735107e-005
4.091000e+000,-2.691650e-004
4.092000e+000,-2.336121e-004
4.093000e+000,-1.594543e-004
4.094000e+000,5.187988e-005
4.095000e+000,2.270508e-004
4.096000e+000,4.313660e-004
4.097000e+000,6.137085e-004
4.098000e+000,8.624268e-004
4.099000e+000,8.354187e-004
4.100000e+000,5.413818e-004
4.101000e+000,1.129150e-004
4.102000e+000,-7.293701e-005
4.103000e+000,-3.086853e-004
4.104000e+000,-7.066345e-004
4.105000e+000,-4.644775e-004
4.106000e+000,-3.312683e-004
4.107000e+000,-1.695251e-004
4.108000e+000,1.103210e-004
4.109000e+000,1.466370e-004
4.110000e+000,1.260376e-004
4.111000e+000,9.750366e-005
4.112000e+000,2.160645e-004
4.113000e+000,3.826904e-004
4.114000e+000,1.527405e-004
4.115000e+000,-1.284790e-004
4.116000e+000,-2.938843e-004
4.117000e+000,-5.157471e-005
4.118000e+000,-8.850098e-006
4.119000e+000,-3.009033e-004
4.120000e+000,-7.766724e-005
4.121000e+000,1.652527e-004
4.122000e+000,5.859375e-005
4.123000e+000,4.913330e-005
4.124000e+000,6.317139e-005
4.125000e+000,-8.987427e-005
4.126000e+000,-3.410339e-004
4.127000e+000,-1.919556e-004
4.128000e+000,1.799011e-004
4.129000e+000,1.617432e-004
4.130000e+000,3.288269e-004
4.131000e+000,8.029175e-004
4.132000e+000,8.949280e-004
4.133000e+000,5.644226e-004
4.134000e+000,6.805420e-005
4.135000e+000,-3.930664e-004
4.136000e+000,-5.256653e-004
4.137000e+000,-5.349731e-004
4.138000e+000,7.232666e-005
4.139000e+000,5.889893e-005
4.140000e+000,-5.696106e-004
4.141000e+000,-7.025146e-004
4.142000e+000,-3.733826e-004
4.143000e+000,9.674072e-005
4.144000e+000,4.251099e-004
4.145000e+000,7.728577e-004
4.146000e+000,6.979370e-004
4.147000e+000,4.818726e-004
4.148000e+000,2.589417e-004
4.149000e+000,6.927490e-005
4.150000e+000,-1.695251e-004
4.151000e+000,-3.471375e-004
4.152000e+000,-2.066040e-004
4.153000e+000,-2.177429e-004
4.154000e+000,-1.856995e-004
4.155000e+000,-1.235962e-004
4.156000e+000,-1.428223e-004
4.157000e+000,-6.149292e-005
4.158000e+000,1.690674e-004
4.159000e+000,4.325867e-004
4.160000e+000,6.607056e-004
4.161000e+000,7.319641e-004
4.162000e+000,3.607178e-004
4.163000e+000,-1.556396e-004
4.164000e+000,-2.864075e-004
4.165000e+000,-1.338196e-004
4.166000e+000,-1.066589e-004
4.167000e+000,-9.902954e-005
4.168000e+000,-1.100159e-004
4.169000e+000,-5.142212e-005
4.170000e+000,1.281738e-005
4.171000e+000,7.019043e-006
4.172000e+000,6.546021e-005
4.173000e+000,2.906799e-004
4.174000e+000,5.575562e-004
4.175000e+000,2.687073e-004
4.176000e+000,-3.071594e-004
4.177000e+000,-7.153320e-004
4.178000e+000,-6.748962e-004
4.179000e+000,-1.953125e-005
4.180000e+000,5.107117e-004
4.181000e+000,9.317017e-004
4.182000e+000,9.547424e-004
4.183000e+000,5.340576e-004
4.184000e+000,-3.509521e-006
4.185000e+000,-4.351807e-004
4.186000e+000,-6.846619e-004
4.187000e+000,-6.997681e-004
4.188000e+000,-2.844238e-004
4.189000e+000,1.103210e-004
4.190000e+000,3.656006e-004
4.191000e+000,4.185486e-004
4.192000e+000,2.842712e-004
4.193000e+000,1.084900e-004
4.194000e+000,1.937866e-005
4.195000e+000,-1.812744e-004
4.196000e+000,-3.756714e-004
4.197000e+000,-4.069519e-004
4.198000e+000,-4.296875e-004
4.199000e+000,-6.381226e-004
4.200000e+000,-7.026672e-004
4.201000e+000,-2.651978e-004
4.202000e+000,1.216125e-004
4.203000e+000,6.852722e-004
4.204000e+000,1.333008e-003
4.205000e+000,1.397400e-003
4.206000e+000,1.156921e-003
4.207000e+000,6.433105e-004
4.208000e+000,1.452637e-004
4.209000e+000,-1.278687e-004
4.210000e+000,-1.535034e-004
4.211000e+000,-4.310608e-004
4.212000e+000,-4.489136e-004
4.213000e+000,-1.947021e-004
4.214000e+000,2.120972e-004
4.215000e+000,2.656555e-004
4.216000e+000,-3.051758e-007
4.217000e+000,-1.229858e-004
4.218000e+000,-3.691101e-004
4.219000e+000,-5.525208e-004
4.220000e+000,-4.846191e-004
4.221000e+000,-2.368164e-004
4.222000e+000,-4.306030e-004
4.223000e+000,-3.904724e-004
4.224000e+000,1.190186e-005
4.225000e+000,3.800964e-004
4.226000e+000,4.743958e-004
4.227000e+000,4.837036e-004
4.228000e+000,5.676270e-004
4.229000e+000,6.842041e-004
4.230000e+000,2.033997e-004
4.231000e+000,-2.740479e-004
4.232000e+000,-1.612854e-004
4.233000e+000,-2.177429e-004
4.234000e+000,-3.610229e-004
4.235000e+000,-1.214600e-004
4.236000e+000,3.349304e-004
4.237000e+000,6.977844e-004
4.238000e+000,6.898499e-004
4.239000e+000,3.890991e-004
